# energy grid [eV]     epsr_x  epsr_y  epsr_z
#
    0.000000000    1.011953120    1.012027694    1.007996172
    0.015015015    1.011953220    1.012027793    1.007996191
    0.030030030    1.011953518    1.012028092    1.007996246
    0.045045045    1.011954014    1.012028589    1.007996337
    0.060060060    1.011954710    1.012029285    1.007996466
    0.075075075    1.011955604    1.012030181    1.007996630
    0.090090090    1.011956697    1.012031275    1.007996832
    0.105105105    1.011957990    1.012032569    1.007997070
    0.120120120    1.011959481    1.012034062    1.007997345
    0.135135135    1.011961172    1.012035755    1.007997657
    0.150150150    1.011963062    1.012037647    1.007998005
    0.165165165    1.011965152    1.012039740    1.007998390
    0.180180180    1.011967441    1.012042032    1.007998812
    0.195195195    1.011969931    1.012044525    1.007999270
    0.210210210    1.011972622    1.012047219    1.007999765
    0.225225225    1.011975513    1.012050114    1.008000297
    0.240240240    1.011978605    1.012053209    1.008000866
    0.255255255    1.011981898    1.012056507    1.008001472
    0.270270270    1.011985394    1.012060006    1.008002114
    0.285285285    1.011989091    1.012063708    1.008002793
    0.300300300    1.011992990    1.012067612    1.008003509
    0.315315315    1.011997093    1.012071719    1.008004262
    0.330330330    1.012001399    1.012076030    1.008005052
    0.345345345    1.012005908    1.012080545    1.008005879
    0.360360360    1.012010622    1.012085265    1.008006743
    0.375375375    1.012015540    1.012090189    1.008007643
    0.390390390    1.012020664    1.012095319    1.008008581
    0.405405405    1.012025993    1.012100655    1.008009556
    0.420420420    1.012031529    1.012106197    1.008010568
    0.435435435    1.012037272    1.012111947    1.008011617
    0.450450450    1.012043222    1.012117904    1.008012703
    0.465465465    1.012049381    1.012124070    1.008013826
    0.480480480    1.012055748    1.012130445    1.008014987
    0.495495495    1.012062325    1.012137030    1.008016185
    0.510510511    1.012069113    1.012143825    1.008017420
    0.525525526    1.012076111    1.012150832    1.008018692
    0.540540541    1.012083321    1.012158050    1.008020002
    0.555555556    1.012090744    1.012165482    1.008021349
    0.570570571    1.012098379    1.012173127    1.008022734
    0.585585586    1.012106229    1.012180986    1.008024156
    0.600600601    1.012114295    1.012189060    1.008025616
    0.615615616    1.012122575    1.012197351    1.008027114
    0.630630631    1.012131073    1.012205859    1.008028649
    0.645645646    1.012139789    1.012214585    1.008030222
    0.660660661    1.012148723    1.012223530    1.008031832
    0.675675676    1.012157877    1.012232694    1.008033481
    0.690690691    1.012167252    1.012242080    1.008035167
    0.705705706    1.012176848    1.012251687    1.008036891
    0.720720721    1.012186667    1.012261518    1.008038653
    0.735735736    1.012196710    1.012271573    1.008040453
    0.750750751    1.012206978    1.012281853    1.008042292
    0.765765766    1.012217472    1.012292359    1.008044168
    0.780780781    1.012228194    1.012303093    1.008046083
    0.795795796    1.012239144    1.012314056    1.008048036
    0.810810811    1.012250324    1.012325249    1.008050027
    0.825825826    1.012261735    1.012336673    1.008052057
    0.840840841    1.012273378    1.012348330    1.008054125
    0.855855856    1.012285255    1.012360220    1.008056232
    0.870870871    1.012297367    1.012372346    1.008058378
    0.885885886    1.012309716    1.012384709    1.008060562
    0.900900901    1.012322302    1.012397310    1.008062785
    0.915915916    1.012335127    1.012410150    1.008065047
    0.930930931    1.012348193    1.012423231    1.008067348
    0.945945946    1.012361502    1.012436555    1.008069687
    0.960960961    1.012375054    1.012450122    1.008072066
    0.975975976    1.012388852    1.012463936    1.008074484
    0.990990991    1.012402897    1.012477996    1.008076942
    1.006006006    1.012417190    1.012492306    1.008079438
    1.021021021    1.012431734    1.012506866    1.008081974
    1.036036036    1.012446530    1.012521679    1.008084550
    1.051051051    1.012461579    1.012536745    1.008087165
    1.066066066    1.012476885    1.012552068    1.008089820
    1.081081081    1.012492448    1.012567648    1.008092514
    1.096096096    1.012508270    1.012583488    1.008095249
    1.111111111    1.012524353    1.012599589    1.008098023
    1.126126126    1.012540700    1.012615954    1.008100838
    1.141141141    1.012557311    1.012632584    1.008103693
    1.156156156    1.012574190    1.012649482    1.008106587
    1.171171171    1.012591339    1.012666649    1.008109523
    1.186186186    1.012608758    1.012684088    1.008112498
    1.201201201    1.012626452    1.012701801    1.008115515
    1.216216216    1.012644421    1.012719790    1.008118572
    1.231231231    1.012662668    1.012738057    1.008121669
    1.246246246    1.012681195    1.012756604    1.008124808
    1.261261261    1.012700005    1.012775435    1.008127988
    1.276276276    1.012719100    1.012794550    1.008131208
    1.291291291    1.012738482    1.012813954    1.008134470
    1.306306306    1.012758154    1.012833647    1.008137774
    1.321321321    1.012778119    1.012853633    1.008141118
    1.336336336    1.012798379    1.012873915    1.008144505
    1.351351351    1.012818936    1.012894494    1.008147933
    1.366366366    1.012839793    1.012915374    1.008151402
    1.381381381    1.012860954    1.012936557    1.008154914
    1.396396396    1.012882420    1.012958046    1.008158468
    1.411411411    1.012904195    1.012979844    1.008162064
    1.426426426    1.012926282    1.013001954    1.008165702
    1.441441441    1.012948683    1.013024379    1.008169383
    1.456456456    1.012971402    1.013047121    1.008173106
    1.471471471    1.012994441    1.013070185    1.008176872
    1.486486486    1.013017804    1.013093572    1.008180681
    1.501501502    1.013041493    1.013117286    1.008184533
    1.516516517    1.013065513    1.013141331    1.008188428
    1.531531532    1.013089866    1.013165710    1.008192366
    1.546546547    1.013114556    1.013190425    1.008196348
    1.561561562    1.013139587    1.013215481    1.008200373
    1.576576577    1.013164961    1.013240881    1.008204442
    1.591591592    1.013190682    1.013266629    1.008208555
    1.606606607    1.013216755    1.013292728    1.008212712
    1.621621622    1.013243182    1.013319182    1.008216913
    1.636636637    1.013269968    1.013345995    1.008221158
    1.651651652    1.013297116    1.013373170    1.008225448
    1.666666667    1.013324630    1.013400712    1.008229782
    1.681681682    1.013352515    1.013428625    1.008234161
    1.696696697    1.013380774    1.013456912    1.008238585
    1.711711712    1.013409412    1.013485579    1.008243055
    1.726726727    1.013438433    1.013514628    1.008247569
    1.741741742    1.013467841    1.013544065    1.008252129
    1.756756757    1.013497641    1.013573895    1.008256735
    1.771771772    1.013527838    1.013604120    1.008261386
    1.786786787    1.013558435    1.013634747    1.008266084
    1.801801802    1.013589437    1.013665780    1.008270827
    1.816816817    1.013620850    1.013697223    1.008275617
    1.831831832    1.013652679    1.013729082    1.008280454
    1.846846847    1.013684927    1.013761362    1.008285337
    1.861861862    1.013717601    1.013794067    1.008290267
    1.876876877    1.013750706    1.013827203    1.008295244
    1.891891892    1.013784247    1.013860776    1.008300269
    1.906906907    1.013818229    1.013894790    1.008305341
    1.921921922    1.013852658    1.013929251    1.008310460
    1.936936937    1.013887540    1.013964165    1.008315628
    1.951951952    1.013922880    1.013999538    1.008320844
    1.966966967    1.013958684    1.014035375    1.008326108
    1.981981982    1.013994958    1.014071683    1.008331420
    1.996996997    1.014031709    1.014108467    1.008336781
    2.012012012    1.014068942    1.014145735    1.008342191
    2.027027027    1.014106665    1.014183491    1.008347650
    2.042042042    1.014144882    1.014221744    1.008353159
    2.057057057    1.014183603    1.014260499    1.008358717
    2.072072072    1.014222832    1.014299763    1.008364325
    2.087087087    1.014262577    1.014339543    1.008369983
    2.102102102    1.014302845    1.014379847    1.008375691
    2.117117117    1.014343644    1.014420682    1.008381450
    2.132132132    1.014384980    1.014462054    1.008387260
    2.147147147    1.014426862    1.014503972    1.008393120
    2.162162162    1.014469296    1.014546444    1.008399032
    2.177177177    1.014512292    1.014589477    1.008404995
    2.192192192    1.014555856    1.014633079    1.008411010
    2.207207207    1.014599998    1.014677258    1.008417077
    2.222222222    1.014644726    1.014722024    1.008423195
    2.237237237    1.014690048    1.014767384    1.008429367
    2.252252252    1.014735973    1.014813347    1.008435591
    2.267267267    1.014782510    1.014859923    1.008441868
    2.282282282    1.014829668    1.014907121    1.008448199
    2.297297297    1.014877457    1.014954949    1.008454583
    2.312312312    1.014925887    1.015003419    1.008461020
    2.327327327    1.014974967    1.015052539    1.008467512
    2.342342342    1.015024707    1.015102319    1.008474058
    2.357357357    1.015075117    1.015152770    1.008480659
    2.372372372    1.015126209    1.015203903    1.008487315
    2.387387387    1.015177993    1.015255728    1.008494026
    2.402402402    1.015230480    1.015308257    1.008500792
    2.417417417    1.015283681    1.015361499    1.008507614
    2.432432432    1.015337608    1.015415468    1.008514493
    2.447447447    1.015392272    1.015470175    1.008521428
    2.462462462    1.015447687    1.015525633    1.008528419
    2.477477477    1.015503863    1.015581852    1.008535467
    2.492492492    1.015560815    1.015638847    1.008542573
    2.507507508    1.015618554    1.015696630    1.008549737
    2.522522523    1.015677095    1.015755215    1.008556958
    2.537537538    1.015736450    1.015814614    1.008564238
    2.552552553    1.015796635    1.015874843    1.008571577
    2.567567568    1.015857662    1.015935916    1.008578974
    2.582582583    1.015919548    1.015997846    1.008586431
    2.597597598    1.015982306    1.016060650    1.008593948
    2.612612613    1.016045953    1.016124343    1.008601524
    2.627627628    1.016110504    1.016188940    1.008609161
    2.642642643    1.016175975    1.016254458    1.008616859
    2.657657658    1.016242384    1.016320913    1.008624618
    2.672672673    1.016309747    1.016388323    1.008632438
    2.687687688    1.016378081    1.016456704    1.008640320
    2.702702703    1.016447405    1.016526076    1.008648265
    2.717717718    1.016517737    1.016596456    1.008656272
    2.732732733    1.016589095    1.016667863    1.008664342
    2.747747748    1.016661501    1.016740316    1.008672475
    2.762762763    1.016734972    1.016813837    1.008680672
    2.777777778    1.016809530    1.016888444    1.008688934
    2.792792793    1.016885196    1.016964160    1.008697260
    2.807807808    1.016961992    1.017041005    1.008705651
    2.822822823    1.017039939    1.017119002    1.008714108
    2.837837838    1.017119060    1.017198174    1.008722630
    2.852852853    1.017199379    1.017278544    1.008731219
    2.867867868    1.017280920    1.017360136    1.008739874
    2.882882883    1.017363707    1.017442974    1.008748597
    2.897897898    1.017447767    1.017527086    1.008757388
    2.912912913    1.017533125    1.017612495    1.008766246
    2.927927928    1.017619807    1.017699230    1.008775173
    2.942942943    1.017707843    1.017787319    1.008784169
    2.957957958    1.017797260    1.017876789    1.008793235
    2.972972973    1.017888087    1.017967669    1.008802370
    2.987987988    1.017980356    1.018059991    1.008811576
    3.003003003    1.018074096    1.018153786    1.008820853
    3.018018018    1.018169341    1.018249084    1.008830201
    3.033033033    1.018266122    1.018345920    1.008839622
    3.048048048    1.018364474    1.018444327    1.008849115
    3.063063063    1.018464432    1.018544340    1.008858681
    3.078078078    1.018566032    1.018645996    1.008868320
    3.093093093    1.018669312    1.018749331    1.008878034
    3.108108108    1.018774309    1.018854384    1.008887822
    3.123123123    1.018881063    1.018961195    1.008897685
    3.138138138    1.018989615    1.019069804    1.008907624
    3.153153153    1.019100008    1.019180253    1.008917640
    3.168168168    1.019212284    1.019292587    1.008927732
    3.183183183    1.019326489    1.019406849    1.008937902
    3.198198198    1.019442669    1.019523087    1.008948150
    3.213213213    1.019560871    1.019641348    1.008958477
    3.228228228    1.019681146    1.019761682    1.008968882
    3.243243243    1.019803545    1.019884139    1.008979368
    3.258258258    1.019928120    1.020008774    1.008989935
    3.273273273    1.020054926    1.020135639    1.009000582
    3.288288288    1.020184020    1.020264793    1.009011311
    3.303303303    1.020315461    1.020396293    1.009022123
    3.318318318    1.020449308    1.020530201    1.009033018
    3.333333333    1.020585624    1.020666578    1.009043997
    3.348348348    1.020724476    1.020805490    1.009055061
    3.363363363    1.020865928    1.020947004    1.009066209
    3.378378378    1.021010053    1.021091190    1.009077444
    3.393393393    1.021156921    1.021238120    1.009088765
    3.408408408    1.021306608    1.021387869    1.009100174
    3.423423423    1.021459191    1.021540515    1.009111671
    3.438438438    1.021614752    1.021696138    1.009123257
    3.453453453    1.021773373    1.021854822    1.009134932
    3.468468468    1.021935141    1.022016654    1.009146698
    3.483483483    1.022100148    1.022181724    1.009158556
    3.498498498    1.022268486    1.022350126    1.009170505
    3.513513514    1.022440253    1.022521957    1.009182548
    3.528528529    1.022615551    1.022697319    1.009194684
    3.543543544    1.022794484    1.022876316    1.009206914
    3.558558559    1.022977163    1.023059060    1.009219241
    3.573573574    1.023163701    1.023245663    1.009231663
    3.588588589    1.023354218    1.023436246    1.009244183
    3.603603604    1.023548838    1.023630931    1.009256801
    3.618618619    1.023747689    1.023829847    1.009269518
    3.633633634    1.023950906    1.024033130    1.009282335
    3.648648649    1.024158629    1.024240920    1.009295254
    3.663663664    1.024371006    1.024453363    1.009308274
    3.678678679    1.024588189    1.024670612    1.009321397
    3.693693694    1.024810337    1.024892827    1.009334624
    3.708708709    1.025037619    1.025120175    1.009347956
    3.723723724    1.025270208    1.025352832    1.009361395
    3.738738739    1.025508287    1.025590978    1.009374940
    3.753753754    1.025752048    1.025834807    1.009388594
    3.768768769    1.026001691    1.026084517    1.009402357
    3.783783784    1.026257426    1.026340319    1.009416231
    3.798798799    1.026519472    1.026602433    1.009430216
    3.813813814    1.026788060    1.026871089    1.009444314
    3.828828829    1.027063433    1.027146529    1.009458526
    3.843843844    1.027345844    1.027429009    1.009472853
    3.858858859    1.027635561    1.027718794    1.009487297
    3.873873874    1.027932866    1.028016166    1.009501859
    3.888888889    1.028238052    1.028321420    1.009516540
    3.903903904    1.028551432    1.028634868    1.009531341
    3.918918919    1.028873333    1.028956837    1.009546264
    3.933933934    1.029204101    1.029287673    1.009561310
    3.948948949    1.029544100    1.029627740    1.009576480
    3.963963964    1.029893714    1.029977422    1.009591777
    3.978978979    1.030253351    1.030337127    1.009607201
    3.993993994    1.030623440    1.030707284    1.009622754
    4.009009009    1.031004436    1.031088347    1.009638437
    4.024024024    1.031396820    1.031480797    1.009654253
    4.039039039    1.031801101    1.031885146    1.009670202
    4.054054054    1.032217823    1.032301934    1.009686287
    4.069069069    1.032647557    1.032731735    1.009702508
    4.084084084    1.033090916    1.033175160    1.009718868
    4.099099099    1.033548548    1.033632857    1.009735369
    4.114114114    1.034021143    1.034105518    1.009752012
    4.129129129    1.034509439    1.034593878    1.009768799
    4.144144144    1.035014220    1.035098723    1.009785732
    4.159159159    1.035536325    1.035620892    1.009802813
    4.174174174    1.036076650    1.036161279    1.009820044
    4.189189189    1.036636153    1.036720845    1.009837427
    4.204204204    1.037215863    1.037300616    1.009854964
    4.219219219    1.037816880    1.037901693    1.009872656
    4.234234234    1.038440389    1.038525261    1.009890508
    4.249249249    1.039087660    1.039172591    1.009908519
    4.264264264    1.039760064    1.039845053    1.009926694
    4.279279279    1.040459078    1.040544122    1.009945034
    4.294294294    1.041186294    1.041271394    1.009963541
    4.309309309    1.041943438    1.042028591    1.009982219
    4.324324324    1.042732376    1.042817580    1.010001069
    4.339339339    1.043555130    1.043640384    1.010020094
    4.354354354    1.044413901    1.044499203    1.010039298
    4.369369369    1.045311080    1.045396428    1.010058682
    4.384384384    1.046249276    1.046334668    1.010078250
    4.399399399    1.047231336    1.047316770    1.010098005
    4.414414414    1.048260379    1.048345851    1.010117949
    4.429429429    1.049339819    1.049425327    1.010138086
    4.444444444    1.050473411    1.050558952    1.010158419
    4.459459459    1.051665288    1.051750859    1.010178952
    4.474474474    1.052920012    1.053005609    1.010199687
    4.489489489    1.054242627    1.054328246    1.010220629
    4.504504505    1.055638729    1.055724365    1.010241780
    4.519519520    1.057114538    1.057200187    1.010263145
    4.534534535    1.058676989    1.058762647    1.010284728
    4.549549550    1.060333837    1.060419496    1.010306533
    4.564564565    1.062093776    1.062179431    1.010328564
    4.579579580    1.063966588    1.064052232    1.010350824
    4.594594595    1.065963312    1.066048939    1.010373320
    4.609609610    1.068096453    1.068182053    1.010396055
    4.624624625    1.070380223    1.070465788    1.010419034
    4.639639640    1.072830840    1.072916361    1.010442262
    4.654654655    1.075466886    1.075552352    1.010465745
    4.669669670    1.078309737    1.078395136    1.010489488
    4.684684685    1.081384097    1.081469415    1.010513496
    4.699699700    1.084718643    1.084803867    1.010537775
    4.714714715    1.088346826    1.088431940    1.010562332
    4.729729730    1.092307862    1.092392848    1.010587172
    4.744744745    1.096647950    1.096732790    1.010612303
    4.759759760    1.101421802    1.101506473    1.010637731
    4.774774775    1.106694528    1.106779007    1.010663464
    4.789789790    1.112543983    1.112628243    1.010689509
    4.804804805    1.119063631    1.119147644    1.010715873
    4.819819820    1.126366001    1.126449732    1.010742566
    4.834834835    1.134586646    1.134670055    1.010769596
    4.849849850    1.143888293    1.143971332    1.010796972
    4.864864865    1.154464159    1.154546764    1.010824704
    4.879879880    1.166537801    1.166619877    1.010852802
    4.894894895    1.180353083    1.180434474    1.010881276
