#        \hbar \omega(eV)           Re(1/eps)            -Im(1/eps)               Re(eps)                Im(eps)
     0.000000000000000E+00  0.233330768249547E+00  -.114195570453911E-16  0.428576140001605E+01  -.209751577803385E-15
     0.100000000000000E-01  0.233330290843486E+00  0.497321660258146E-04  0.428576997421160E+01  0.913471727718856E-03
     0.200000000000000E-01  0.233328858629127E+00  0.994687377422481E-04  0.428579569686007E+01  0.182704655863179E-02
     0.300000000000000E-01  0.233326471618033E+00  0.149214123762967E-03  0.428583856814521E+01  0.274082765706165E-02
     0.400000000000000E-01  0.233323129829715E+00  0.198972738547389E-03  0.428589858836850E+01  0.365491830958401E-02
     0.500000000000000E-01  0.233318833292031E+00  0.248749005322521E-03  0.428597575794145E+01  0.456942198613672E-02
     0.600000000000000E-01  0.233313582041710E+00  0.298547359003445E-03  0.428607007737524E+01  0.548444240110854E-02
     0.700000000000000E-01  0.233307376125044E+00  0.348372249111873E-03  0.428618154726719E+01  0.640008357439581E-02
     0.800000000000000E-01  0.233300215598743E+00  0.398228142691953E-03  0.428631016828402E+01  0.731644989241310E-02
     0.900000000000000E-01  0.233292100530939E+00  0.448119527222391E-03  0.428645594114213E+01  0.823364616904152E-02
     0.100000000000000E+00  0.233283031002362E+00  0.498050913523693E-03  0.428661886658455E+01  0.915177770649217E-02
     0.110000000000000E+00  0.233273007107684E+00  0.548026838659071E-03  0.428679894535458E+01  0.100709503560574E-01
     0.120000000000000E+00  0.233262028957045E+00  0.598051868827181E-03  0.428699617816597E+01  0.109912705787159E-01
     0.130000000000000E+00  0.233250096677727E+00  0.648130602244609E-03  0.428721056566987E+01  0.119128455055530E-01
     0.140000000000000E+00  0.233237210416054E+00  0.698267672015444E-03  0.428744210841778E+01  0.128357829979422E-01
     0.150000000000000E+00  0.233223370339446E+00  0.748467748984930E-03  0.428769080682116E+01  0.137601917074347E-01
     0.160000000000000E+00  0.233208576638691E+00  0.798735544573596E-03  0.428795666110681E+01  0.146861811352820E-01
     0.170000000000000E+00  0.233192829530412E+00  0.849075813587625E-03  0.428823967126856E+01  0.156138616915158E-01
     0.180000000000000E+00  0.233176129259746E+00  0.899493357000674E-03  0.428853983701462E+01  0.165433447534860E-01
     0.190000000000000E+00  0.233158476103242E+00  0.949993024701459E-03  0.428885715771068E+01  0.174747427237513E-01
     0.200000000000000E+00  0.233139870371995E+00  0.100057971820072E-02  0.428919163231843E+01  0.184081690871935E-01
     0.210000000000000E+00  0.233120312415000E+00  0.105125839329023E-02  0.428954325932961E+01  0.193437384672173E-01
     0.220000000000000E+00  0.233099802622776E+00  0.110203406264551E-02  0.428991203669500E+01  0.202815666808675E-01
     0.230000000000000E+00  0.233078341431233E+00  0.115291179836288E-02  0.429029796174821E+01  0.212217707926804E-01
     0.240000000000000E+00  0.233055929325807E+00  0.120389673442006E-02  0.429070103112464E+01  0.221644691670660E-01
     0.250000000000000E+00  0.233032566845883E+00  0.125499406904869E-02  0.429112124067444E+01  0.231097815189793E-01
     0.260000000000000E+00  0.233008254589500E+00  0.130620906700512E-02  0.429155858537012E+01  0.240578289626257E-01
     0.270000000000000E+00  0.232982993218356E+00  0.135754706172474E-02  0.429201305920804E+01  0.250087340579030E-01
     0.280000000000000E+00  0.232956783463148E+00  0.140901345734320E-02  0.429248465510350E+01  0.259626208542530E-01
     0.290000000000000E+00  0.232929626129203E+00  0.146061373056616E-02  0.429297336477990E+01  0.269196149315684E-01
     0.300000000000000E+00  0.232901522102479E+00  0.151235343236706E-02  0.429347917865084E+01  0.278798434377428E-01
     0.310000000000000E+00  0.232872472355898E+00  0.156423818949053E-02  0.429400208569538E+01  0.288434351224279E-01
     0.320000000000000E+00  0.232842477956040E+00  0.161627370573650E-02  0.429454207332634E+01  0.298105203665069E-01
     0.330000000000000E+00  0.232811540070224E+00  0.166846576299778E-02  0.429509912725104E+01  0.307812312067452E-01
     0.340000000000000E+00  0.232779659973948E+00  0.172082022202129E-02  0.429567323132466E+01  0.317557013550338E-01
     0.350000000000000E+00  0.232746839058755E+00  0.177334302286001E-02  0.429626436739555E+01  0.327340662115703E-01
     0.360000000000000E+00  0.232713078840460E+00  0.182604018498017E-02  0.429687251514309E+01  0.337164628712907E-01
     0.370000000000000E+00  0.232678380967820E+00  0.187891780698474E-02  0.429749765190708E+01  0.347030301227689E-01
     0.380000000000000E+00  0.232642747231595E+00  0.193198206591095E-02  0.429813975250905E+01  0.356939084387612E-01
     0.390000000000000E+00  0.232606179574057E+00  0.198523921605641E-02  0.429879878906516E+01  0.366892399574917E-01
     0.400000000000000E+00  0.232568680098873E+00  0.203869558728426E-02  0.429947473079127E+01  0.376891684537140E-01
     0.410000000000000E+00  0.232530251081456E+00  0.209235758275457E-02  0.430016754379912E+01  0.386938392984890E-01
     0.420000000000000E+00  0.232490894979679E+00  0.214623167602483E-02  0.430087719088503E+01  0.397033994065743E-01
     0.430000000000000E+00  0.232450614445041E+00  0.220032440745886E-02  0.430160363130989E+01  0.407179971702016E-01
     0.440000000000000E+00  0.232409412334187E+00  0.225464237987920E-02  0.430234682057205E+01  0.417377823779875E-01
     0.450000000000000E+00  0.232367291720810E+00  0.230919225339426E-02  0.430310671017264E+01  0.427629061176067E-01
     0.460000000000000E+00  0.232324255907898E+00  0.236398073932759E-02  0.430388324737408E+01  0.437935206607978E-01
     0.470000000000000E+00  0.232280308440304E+00  0.241901459317291E-02  0.430467637495223E+01  0.448297793291945E-01
     0.480000000000000E+00  0.232235453117572E+00  0.247430060649504E-02  0.430548603094344E+01  0.458718363394156E-01
     0.490000000000000E+00  0.232189694006987E+00  0.252984559769398E-02  0.430631214838709E+01  0.469198466257738E-01
     0.500000000000000E+00  0.232143035456818E+00  0.258565640154633E-02  0.430715465506451E+01  0.479739656389098E-01
     0.510000000000000E+00  0.232095482109624E+00  0.264173985743672E-02  0.430801347323636E+01  0.490343491186421E-01
     0.520000000000000E+00  0.232047038915590E+00  0.269810279619041E-02  0.430888851937966E+01  0.501011528392744E-01
     0.530000000000000E+00  0.231997711145782E+00  0.275475202541798E-02  0.430977970392621E+01  0.511745323256045E-01
     0.540000000000000E+00  0.231947504405221E+00  0.281169431328401E-02  0.431068693100466E+01  0.522546425379029E-01
     0.550000000000000E+00  0.231896424645620E+00  0.286893637061427E-02  0.431161009818925E+01  0.533416375241925E-01
     0.560000000000000E+00  0.231844478177706E+00  0.292648483125933E-02  0.431254909625662E+01  0.544356700381820E-01
     0.570000000000000E+00  0.231791671682887E+00  0.298434623063917E-02  0.431350380895560E+01  0.555368911214196E-01
     0.580000000000000E+00  0.231738012224164E+00  0.304252698240132E-02  0.431447411279193E+01  0.566454496483020E-01
     0.590000000000000E+00  0.231683507256046E+00  0.310103335313569E-02  0.431545987683251E+01  0.577614918328513E-01
     0.600000000000000E+00  0.231628164633266E+00  0.315987143510322E-02  0.431646096253344E+01  0.588851606964236E-01
     0.610000000000000E+00  0.231571992618062E+00  0.321904711695242E-02  0.431747722359633E+01  0.600165954958472E-01
     0.620000000000000E+00  0.231514999885777E+00  0.327856605241815E-02  0.431850850585762E+01  0.611559311118902E-01
     0.630000000000000E+00  0.231457195528488E+00  0.333843362702125E-02  0.431955464721698E+01  0.623032973984607E-01
     0.640000000000000E+00  0.231398589056387E+00  0.339865492281663E-02  0.432061547760995E+01  0.634588184934805E-01
     0.650000000000000E+00  0.231339190396599E+00  0.345923468126952E-02  0.432169081903102E+01  0.646226120930348E-01
     0.660000000000000E+00  0.231279009889128E+00  0.352017726437731E-02  0.432278048561351E+01  0.657947886911371E-01
     0.670000000000000E+00  0.231218058279567E+00  0.358148661419637E-02  0.432388428377298E+01  0.669754507882896E-01
     0.680000000000000E+00  0.231156346708297E+00  0.364316621097929E-02  0.432500201242008E+01  0.681646920728945E-01
     0.690000000000001E+00  0.231093886695769E+00  0.370521903017900E-02  0.432613346325042E+01  0.693625965806351E-01
     0.700000000000001E+00  0.231030690123594E+00  0.376764749863076E-02  0.432727842111693E+01  0.705692378379605E-01
     0.710000000000001E+00  0.230966769211077E+00  0.383045345028091E-02  0.432843666449201E+01  0.717846779970054E-01
     0.720000000000001E+00  0.230902136486964E+00  0.389363808189173E-02  0.432960796602384E+01  0.730089669704027E-01
     0.730000000000001E+00  0.230836804756052E+00  0.395720190921398E-02  0.433079209319373E+01  0.742421415757608E-01
     0.740000000000001E+00  0.230770787060527E+00  0.402114472418026E-02  0.433198880907697E+01  0.754842247006723E-01
     0.750000000000001E+00  0.230704096635802E+00  0.408546555373304E-02  0.433319787321197E+01  0.767352245004285E-01
     0.760000000000001E+00  0.230636746860802E+00  0.415016262095827E-02  0.433441904257818E+01  0.779951336416241E-01
     0.770000000000001E+00  0.230568751202609E+00  0.421523330924645E-02  0.433565207268471E+01  0.792639286059384E-01
     0.780000000000001E+00  0.230500123155636E+00  0.428067413024660E-02  0.433689671876618E+01  0.805415690690916E-01
     0.790000000000001E+00  0.230430876175373E+00  0.434648069641082E-02  0.433815273708462E+01  0.818279973707585E-01
     0.800000000000001E+00  0.230361023607126E+00  0.441264769894647E-02  0.433941988632946E+01  0.831231380914123E-01
     0.810000000000001E+00  0.230290578610047E+00  0.447916889199549E-02  0.434069792910899E+01  0.844268977522384E-01
     0.820000000000001E+00  0.230219554077063E+00  0.454603708384509E-02  0.434198663352176E+01  0.857391646538518E-01
     0.830000000000001E+00  0.230147962551355E+00  0.461324413593660E-02  0.434328577479460E+01  0.870598088688144E-01
     0.840000000000001E+00  0.230075816140194E+00  0.468078097037975E-02  0.434459513697143E+01  0.883886824017555E-01
     0.850000000000001E+00  0.230003126427079E+00  0.474863758659468E-02  0.434591451463392E+01  0.897256195291802E-01
     0.860000000000001E+00  0.229929904383281E+00  0.481680308759471E-02  0.434724371463257E+01  0.910704373288622E-01
     0.870000000000001E+00  0.229856160279893E+00  0.488526571628851E-02  0.434858255780589E+01  0.924229364061020E-01
     0.880000000000001E+00  0.229781903601763E+00  0.495401290202175E-02  0.434993088066106E+01  0.937829018208745E-01
     0.890000000000001E+00  0.229707142964581E+00  0.502303131739958E-02  0.435128853699071E+01  0.951501042164643E-01
     0.900000000000001E+00  0.229631886036555E+00  0.509230694523342E-02  0.435265539939771E+01  0.965243011461929E-01
     0.910000000000001E+00  0.229556139466057E+00  0.516182515524565E-02  0.435403136070077E+01  0.979052385907410E-01
     0.920000000000001E+00  0.229479908816641E+00  0.523157078994743E-02  0.435541633519352E+01  0.992926526542440E-01
     0.930000000000001E+00  0.229403198510752E+00  0.530152825888597E-02  0.435681025973108E+01  0.100686271423047E+00
     0.940000000000001E+00  0.229326011783331E+00  0.537168164024458E-02  0.435821309462077E+01  0.102085816966837E+00
     0.950000000000001E+00  0.229248350646446E+00  0.544201478857946E-02  0.435962482429500E+01  0.103491007457939E+00
     0.960000000000001E+00  0.229170215865807E+00  0.551251144729870E-02  0.436104545774960E+01  0.104901559381136E+00
     0.970000000000001E+00  0.229091606949935E+00  0.558315536433917E-02  0.436247502873310E+01  0.106317189803421E+00
     0.980000000000002E+00  0.229012522152425E+00  0.565393040938103E-02  0.436391359567838E+01  0.107737618670893E+00
     0.990000000000002E+00  0.228932958487531E+00  0.572482069086391E-02  0.436536124137293E+01  0.109162571098596E+00
     0.100000000000000E+01  0.228852911759070E+00  0.579581067103727E-02  0.436681807236806E+01  0.110591779618492E+00
     0.101000000000000E+01  0.228772376602287E+00  0.586688527728950E-02  0.436828421813447E+01  0.112024986351140E+00
     0.102000000000000E+01  0.228691346538160E+00  0.593803000806189E-02  0.436975982997530E+01  0.113461945067900E+00
     0.103000000000000E+01  0.228609814039299E+00  0.600923103175594E-02  0.437124507971309E+01  0.114902423112539E+00
     0.104000000000000E+01  0.228527770606392E+00  0.608047527718811E-02  0.437274015817217E+01  0.116346203154138E+00
     0.105000000000000E+01  0.228445206853966E+00  0.615175051432736E-02  0.437424527348088E+01  0.117793084746715E+00
     0.106000000000000E+01  0.228362112604023E+00  0.622304542426051E-02  0.437576064922215E+01  0.119242885675254E+00
     0.107000000000000E+01  0.228278476986058E+00  0.629434965756333E-02  0.437728652246202E+01  0.120695443072358E+00
     0.108000000000000E+01  0.228194288541794E+00  0.636565388050163E-02  0.437882314168920E+01  0.122150614294709E+00
     0.109000000000000E+01  0.228109535333015E+00  0.643694980873761E-02  0.438037076469738E+01  0.123608277553392E+00
     0.110000000000000E+01  0.228024205050828E+00  0.650823022846680E-02  0.438192965644326E+01  0.125068332297101E+00
     0.111000000000000E+01  0.227938285124739E+00  0.657948900514843E-02  0.438350008691171E+01  0.126530699351886E+00
     0.112000000000000E+01  0.227851762830043E+00  0.665072108021457E-02  0.438508232901798E+01  0.127995320825452E+00
     0.113000000000000E+01  0.227764625392058E+00  0.672192245634138E-02  0.438667665657494E+01  0.129462159787908E+00
     0.114000000000000E+01  0.227676860086024E+00  0.679309017203795E-02  0.438828334234893E+01  0.130931199744081E+00
     0.115000000000000E+01  0.227588454331421E+00  0.686422226644922E-02  0.438990265622807E+01  0.132402443915474E+00
     0.116000000000000E+01  0.227499395779869E+00  0.693531773538006E-02  0.439153486351923E+01  0.133875914351768E+00
     0.117000000000000E+01  0.227409672395780E+00  0.700637647962458E-02  0.439318022338983E+01  0.135351650893462E+00
     0.118000000000000E+01  0.227319272529186E+00  0.707739924673234E-02  0.439483898746504E+01  0.136829710007986E+00
     0.119000000000000E+01  0.227228184980350E+00  0.714838756736001E-02  0.439651139858830E+01  0.138310163521937E+00
     0.120000000000000E+01  0.227136399055855E+00  0.721934368734856E-02  0.439819768975035E+01  0.139793097271926E+00
     0.121000000000000E+01  0.227043904616179E+00  0.729027049663361E-02  0.439989808318662E+01  0.141278609695671E+00
     0.122000000000000E+01  0.226950692114691E+00  0.736117145604488E-02  0.440161278964377E+01  0.142766810384142E+00
     0.123000000000000E+01  0.226856752628329E+00  0.743205052298226E-02  0.440334200781018E+01  0.144257818613986E+00
     0.124000000000000E+01  0.226762077880196E+00  0.750291207687803E-02  0.440508592390534E+01  0.145751761878000E+00
     0.125000000000000E+01  0.226666660254438E+00  0.757376084526462E-02  0.440684471142092E+01  0.147248774429621E+00
     0.126000000000000E+01  0.226570492803874E+00  0.764460183117604E-02  0.440861853100413E+01  0.148748995855538E+00
     0.127000000000000E+01  0.226473569250817E+00  0.771544024251504E-02  0.441040753047468E+01  0.150252569688738E+00
     0.128000000000000E+01  0.226375883981650E+00  0.778628142392480E-02  0.441221184496398E+01  0.151759642072336E+00
     0.129000000000000E+01  0.226277432035701E+00  0.785713079161209E-02  0.441403159716619E+01  0.153270360482840E+00
     0.130000000000000E+01  0.226178209088911E+00  0.792799377148234E-02  0.441586689769094E+01  0.154784872519822E+00
     0.131000000000000E+01  0.226078211432956E+00  0.799887574086671E-02  0.441771784550536E+01  0.156303324767261E+00
     0.132000000000000E+01  0.225977435950251E+00  0.806978197404771E-02  0.441958452845637E+01  0.157825861730589E+00
     0.133000000000000E+01  0.225875880085434E+00  0.814071759172326E-02  0.442146702386212E+01  0.159352624852041E+00
     0.134000000000000E+01  0.225773541813808E+00  0.821168751449195E-02  0.442336539916289E+01  0.160883751605832E+00
     0.135000000000000E+01  0.225670419607177E+00  0.828269642039067E-02  0.442527971262311E+01  0.162419374673796E+00
     0.136000000000000E+01  0.225566512397564E+00  0.835374870647400E-02  0.442721001407505E+01  0.163959621201146E+00
     0.137000000000000E+01  0.225461819539175E+00  0.842484845438855E-02  0.442915634569683E+01  0.165504612131481E+00
     0.138000000000000E+01  0.225356340768984E+00  0.849599939986762E-02  0.443111874281804E+01  0.167054461619593E+00
     0.139000000000000E+01  0.225250076166296E+00  0.856720490604791E-02  0.443309723474538E+01  0.168609276520106E+00
     0.140000000000000E+01  0.225143026111555E+00  0.863846794049404E-02  0.443509184560356E+01  0.170169155949826E+00
     0.141000000000000E+01  0.225035191244688E+00  0.870979105580430E-02  0.443710259518581E+01  0.171734190921340E+00
     0.142000000000000E+01  0.224926572423233E+00  0.878117637366290E-02  0.443912949980889E+01  0.173304464045287E+00
     0.143000000000000E+01  0.224817170680441E+00  0.885262557220023E-02  0.444117257316936E+01  0.174880049298716E+00
     0.144000000000000E+01  0.224706987183554E+00  0.892413987652138E-02  0.444323182719665E+01  0.176461011856852E+00
     0.145000000000000E+01  0.224596023192426E+00  0.899572005226369E-02  0.444530727290009E+01  0.178047407985670E+00
     0.146000000000000E+01  0.224484280018641E+00  0.906736640204793E-02  0.444739892120670E+01  0.179639284992718E+00
     0.147000000000000E+01  0.224371758985234E+00  0.913907876469132E-02  0.444950678378759E+01  0.181236681233752E+00
     0.148000000000000E+01  0.224258461387157E+00  0.921085651705637E-02  0.445163087387018E+01  0.182839626172806E+00
     0.149000000000000E+01  0.224144388452584E+00  0.928269857841473E-02  0.445377120703439E+01  0.184448140493458E+00
     0.150000000000000E+01  0.224029541305147E+00  0.935460341721207E-02  0.445592780199092E+01  0.186062236259183E+00
     0.151000000000000E+01  0.223913920927166E+00  0.942656906012526E-02  0.445810068134006E+01  0.187681917120790E+00
     0.152000000000000E+01  0.223797528124030E+00  0.949859310330858E-02  0.446028987230828E+01  0.189307178568946E+00
     0.153000000000000E+01  0.223680363489681E+00  0.957067272573196E-02  0.446249540746287E+01  0.190938008230120E+00
     0.154000000000000E+01  0.223562427373387E+00  0.964280470451735E-02  0.446471732540135E+01  0.192574386204062E+00
     0.155000000000000E+01  0.223443719847799E+00  0.971498543218356E-02  0.446695567141525E+01  0.194216285441224E+00
     0.156000000000000E+01  0.223324240678393E+00  0.978721093571344E-02  0.446921049812623E+01  0.195863672158445E+00
     0.157000000000000E+01  0.223203989294344E+00  0.985947689735760E-02  0.447148186609344E+01  0.197516506291309E+00
     0.158000000000000E+01  0.223082964760916E+00  0.993177867709156E-02  0.447376984439031E+01  0.199174741981533E+00
     0.159000000000000E+01  0.222961165753413E+00  0.100041113366422E-01  0.447607451114956E+01  0.200838328097775E+00
     0.160000000000000E+01  0.222838590532771E+00  0.100764696649984E-01  0.447839595407484E+01  0.202507208788193E+00
     0.161000000000000E+01  0.222715236922852E+00  0.101488482053203E-01  0.448073427091745E+01  0.204181324063022E+00
     0.162000000000000E+01  0.222591102289495E+00  0.102212412831572E-01  0.448308956991693E+01  0.205860610405401E+00
     0.163000000000000E+01  0.222466183521404E+00  0.102936430358823E-01  0.448546197020371E+01  0.207545001408540E+00
     0.164000000000000E+01  0.222340477012932E+00  0.103660474432477E-01  0.448785160216249E+01  0.209234428437275E+00
     0.165000000000000E+01  0.222213978648799E+00  0.104384483589586E-01  0.449025860775530E+01  0.210928821311920E+00
     0.166000000000000E+01  0.222086683790844E+00  0.105108395431614E-01  0.449268314080226E+01  0.212628109012207E+00
