#        \hbar \omega(eV)           Re(1/eps)            -Im(1/eps)               Re(eps)                Im(eps)
     0.000000000000000E+00  0.233316739377181E+00  -.679843061733101E-16  0.428601909434108E+01  -.124886896307636E-14
     0.100000000000000E-01  0.233316262898076E+00  0.500067612878404E-04  0.428602765037147E+01  0.918625898267707E-03
     0.200000000000000E-01  0.233314833470768E+00  0.100018123260277E-03  0.428605331840649E+01  0.183735857134951E-02
     0.300000000000000E-01  0.233312451125347E+00  0.150038689345125E-03  0.428609609827631E+01  0.275630485167350E-02
     0.400000000000000E-01  0.233309115912293E+00  0.200073068452737E-03  0.428615598969147E+01  0.367557168682181E-02
     0.500000000000000E-01  0.233304827902943E+00  0.250125877706494E-03  0.428623299223374E+01  0.459526619690443E-02
     0.600000000000000E-01  0.233299587190134E+00  0.300201745160378E-03  0.428632710534366E+01  0.551549573169076E-02
     0.700000000000000E-01  0.233293393889091E+00  0.350305312498924E-03  0.428643832830315E+01  0.643636792740670E-02
     0.800000000000000E-01  0.233286248138460E+00  0.400441237714656E-03  0.428656666021544E+01  0.735799076310859E-02
     0.900000000000000E-01  0.233278150101560E+00  0.450614197757804E-03  0.428671209998071E+01  0.828047261653314E-02
     0.100000000000000E+00  0.233269099967824E+00  0.500828891152669E-03  0.428687464626787E+01  0.920392231931692E-02
     0.110000000000000E+00  0.233259097954451E+00  0.551090040574569E-03  0.428705429748247E+01  0.101284492114701E-01
     0.120000000000000E+00  0.233248144308277E+00  0.601402395380742E-03  0.428725105173018E+01  0.110541631949765E-01
     0.130000000000000E+00  0.233236239307821E+00  0.651770734087994E-03  0.428746490677695E+01  0.119811747863867E-01
     0.140000000000000E+00  0.233223383265578E+00  0.702199866789171E-03  0.428769586000420E+01  0.129095951682466E-01
     0.150000000000000E+00  0.233209576530513E+00  0.752694637499771E-03  0.428794390836026E+01  0.138395362392003E-01
     0.160000000000000E+00  0.233194819490787E+00  0.803259926425219E-03  0.428820904830711E+01  0.147711106625815E-01
     0.170000000000000E+00  0.233179112576701E+00  0.853900652138361E-03  0.428849127576302E+01  0.157044319132966E-01
     0.180000000000000E+00  0.233162456263888E+00  0.904621773655720E-03  0.428879058604022E+01  0.166396143227736E-01
     0.190000000000000E+00  0.233144851076725E+00  0.955428292400055E-03  0.428910697377824E+01  0.175767731217428E-01
     0.200000000000000E+00  0.233126297591998E+00  0.100632525403553E-02  0.428944043287240E+01  0.185160244805808E-01
     0.210000000000000E+00  0.233106796442800E+00  0.105731775016060E-02  0.428979095639768E+01  0.194574855469333E-01
     0.220000000000000E+00  0.233086348322699E+00  0.110841091984239E-02  0.429015853652724E+01  0.204012744802985E-01
     0.230000000000000E+00  0.233064953990137E+00  0.115960995097494E-02  0.429054316444648E+01  0.213475104832373E-01
     0.240000000000000E+00  0.233042614273092E+00  0.121092008144234E-02  0.429094483026190E+01  0.222963138288363E-01
     0.250000000000000E+00  0.233019330074008E+00  0.126234660006605E-02  0.429136352290468E+01  0.232478058840255E-01
     0.260000000000000E+00  0.232995102374960E+00  0.131389484731445E-02  0.429179923002961E+01  0.242021091283249E-01
     0.270000000000000E+00  0.232969932243101E+00  0.136557021575070E-02  0.429225193790849E+01  0.251593471675554E-01
     0.280000000000000E+00  0.232943820836337E+00  0.141737815019373E-02  0.429272163131905E+01  0.261196447420275E-01
     0.290000000000000E+00  0.232916769409284E+00  0.146932414756531E-02  0.429320829342819E+01  0.270831277286739E-01
     0.300000000000000E+00  0.232888779319444E+00  0.152141375639470E-02  0.429371190567097E+01  0.280499231365849E-01
     0.310000000000000E+00  0.232859852033625E+00  0.157365257595072E-02  0.429423244762473E+01  0.290201590953516E-01
     0.320000000000000E+00  0.232829989134607E+00  0.162604625496989E-02  0.429476989687827E+01  0.299939648355991E-01
     0.330000000000000E+00  0.232799192327985E+00  0.167860048994754E-02  0.429532422889754E+01  0.309714706610871E-01
     0.340000000000000E+00  0.232767463449240E+00  0.173132102295825E-02  0.429589541688664E+01  0.319528079116940E-01
     0.350000000000000E+00  0.232734804470960E+00  0.178421363897032E-02  0.429648343164591E+01  0.329381089166196E-01
     0.360000000000000E+00  0.232701217510232E+00  0.183728416261925E-02  0.429708824142642E+01  0.339275069371008E-01
     0.370000000000000E+00  0.232666704836134E+00  0.189053845440414E-02  0.429770981178241E+01  0.349211360979518E-01
     0.380000000000000E+00  0.232631268877326E+00  0.194398240627157E-02  0.429834810542166E+01  0.359191313072224E-01
     0.390000000000000E+00  0.232594912229678E+00  0.199762193655227E-02  0.429900308205478E+01  0.369216281632951E-01
     0.400000000000000E+00  0.232557637663913E+00  0.205146298421685E-02  0.429967469824425E+01  0.379287628487576E-01
     0.410000000000000E+00  0.232519448133171E+00  0.210551150241921E-02  0.430036290725449E+01  0.389406720104354E-01
     0.420000000000000E+00  0.232480346780497E+00  0.215977345129907E-02  0.430106765890342E+01  0.399574926250064E-01
     0.430000000000000E+00  0.232440336946141E+00  0.221425479001853E-02  0.430178889941733E+01  0.409793618497054E-01
     0.440000000000000E+00  0.232399422174618E+00  0.226896146801269E-02  0.430252657129003E+01  0.420064168577096E-01
     0.450000000000000E+00  0.232357606221457E+00  0.232389941543989E-02  0.430328061314791E+01  0.430387946579076E-01
     0.460000000000000E+00  0.232314893059557E+00  0.237907453282434E-02  0.430405095962239E+01  0.440766318988887E-01
     0.470000000000000E+00  0.232271286885025E+00  0.243449267989213E-02  0.430483754123179E+01  0.451200646571579E-01
     0.480000000000000E+00  0.232226792122500E+00  0.249015966361127E-02  0.430564028427337E+01  0.461692282097304E-01
     0.490000000000000E+00  0.232181413429747E+00  0.254608122545720E-02  0.430645911072869E+01  0.472242567915243E-01
     0.500000000000000E+00  0.232135155701494E+00  0.260226302793757E-02  0.430729393818370E+01  0.482852833381622E-01
     0.510000000000000E+00  0.232088024072434E+00  0.265871064042345E-02  0.430814467976457E+01  0.493524392150408E-01
     0.520000000000000E+00  0.232040023919198E+00  0.271542952434876E-02  0.430901124409302E+01  0.504258539338691E-01
     0.530000000000000E+00  0.231991160861319E+00  0.277242501785537E-02  0.430989353526107E+01  0.515056548580908E-01
     0.540000000000000E+00  0.231941440761007E+00  0.282970231997707E-02  0.431079145282841E+01  0.525919668989855E-01
     0.550000000000000E+00  0.231890869721695E+00  0.288726647447279E-02  0.431170489184320E+01  0.536849122045209E-01
     0.560000000000000E+00  0.231839454085262E+00  0.294512235343530E-02  0.431263374288840E+01  0.547846098433655E-01
     0.570000000000000E+00  0.231787200427895E+00  0.300327464081777E-02  0.431357789215391E+01  0.558911754867502E-01
     0.580000000000000E+00  0.231734115554566E+00  0.306172781603491E-02  0.431453722153553E+01  0.570047210911541E-01
     0.590000000000000E+00  0.231680206492014E+00  0.312048613780812E-02  0.431551160876243E+01  0.581253545850814E-01
     0.600000000000000E+00  0.231625480480372E+00  0.317955362843397E-02  0.431650092755079E+01  0.592531795632723E-01
     0.610000000000000E+00  0.231569944963373E+00  0.323893405866164E-02  0.431750504778478E+01  0.603882949919324E-01
     0.620000000000000E+00  0.231513607577224E+00  0.329863093336682E-02  0.431852383572314E+01  0.615307949285297E-01
     0.630000000000000E+00  0.231456476138271E+00  0.335864747820633E-02  0.431955715422921E+01  0.626807682596581E-01
     0.640000000000000E+00  0.231398558629559E+00  0.341898662742857E-02  0.432060486302240E+01  0.638382984602975E-01
     0.650000000000000E+00  0.231339863186448E+00  0.347965101299833E-02  0.432166681894786E+01  0.650034633774873E-01
     0.660000000000000E+00  0.231280398081518E+00  0.354064295517232E-02  0.432274287626034E+01  0.661763350409747E-01
     0.670000000000000E+00  0.231220171708951E+00  0.360196445462983E-02  0.432383288691830E+01  0.673569795028236E-01
     0.680000000000000E+00  0.231159192568687E+00  0.366361718622616E-02  0.432493670088288E+01  0.685454567072282E-01
     0.690000000000001E+00  0.231097469250588E+00  0.372560249439048E-02  0.432605416641725E+01  0.697418203909277E-01
     0.700000000000001E+00  0.231035010418941E+00  0.378792139013867E-02  0.432718513037999E+01  0.709461180136036E-01
     0.710000000000001E+00  0.230971824797568E+00  0.385057454961559E-02  0.432832943850774E+01  0.721583907166037E-01
     0.720000000000001E+00  0.230907921155857E+00  0.391356231402084E-02  0.432948693568079E+01  0.733786733071374E-01
     0.730000000000001E+00  0.230843308295937E+00  0.397688469071152E-02  0.433065746616788E+01  0.746069942640037E-01
     0.740000000000001E+00  0.230777995041290E+00  0.404054135521513E-02  0.433184087384441E+01  0.758433757596691E-01
     0.750000000000001E+00  0.230711990226948E+00  0.410453165382976E-02  0.433303700238167E+01  0.770878336925457E-01
     0.760000000000001E+00  0.230645302691454E+00  0.416885460643915E-02  0.433424569540346E+01  0.783403777222960E-01
     0.770000000000001E+00  0.230577941270578E+00  0.423350890913105E-02  0.433546679661087E+01  0.796010113003641E-01
     0.780000000000001E+00  0.230509914792868E+00  0.429849293617968E-02  0.433670014987364E+01  0.808697316872981E-01
     0.790000000000001E+00  0.230441232076846E+00  0.436380474094167E-02  0.433794559929191E+01  0.821465299483578E-01
     0.800000000000001E+00  0.230371901929706E+00  0.442944205521997E-02  0.433920298923155E+01  0.834313909189462E-01
     0.810000000000001E+00  0.230301933147196E+00  0.449540228667404E-02  0.434047216433922E+01  0.847242931319401E-01
     0.820000000000001E+00  0.230231334514303E+00  0.456168251389839E-02  0.434175296954472E+01  0.860252086998527E-01
     0.830000000000001E+00  0.230160114806285E+00  0.462827947885315E-02  0.434304525005958E+01  0.873341031459744E-01
     0.840000000000001E+00  0.230088282789479E+00  0.469518957641165E-02  0.434434885138318E+01  0.886509351802720E-01
     0.850000000000001E+00  0.230015847221298E+00  0.476240884088560E-02  0.434566361932761E+01  0.899756564176613E-01
     0.860000000000001E+00  0.229942816848749E+00  0.482993292949904E-02  0.434698940007445E+01  0.913082110384571E-01
     0.870000000000001E+00  0.229869200404813E+00  0.489775710290057E-02  0.434832604027614E+01  0.926485353931046E-01
     0.880000000000001E+00  0.229795006601999E+00  0.496587620292958E-02  0.434967338721529E+01  0.939965575557491E-01
     0.890000000000001E+00  0.229720244122401E+00  0.503428462797760E-02  0.435103128903461E+01  0.953521968336637E-01
     0.900000000000001E+00  0.229644921603694E+00  0.510297630640951E-02  0.435239959504870E+01  0.967153632419040E-01
     0.910000000000001E+00  0.229569047620477E+00  0.517194466862523E-02  0.435377815614855E+01  0.980859569548563E-01
     0.920000000000001E+00  0.229492630660488E+00  0.524118261844584E-02  0.435516682530790E+01  0.994638677483502E-01
     0.930000000000001E+00  0.229415679095449E+00  0.531068250459794E-02  0.435656545819593E+01  0.100848974447605E+00
     0.940000000000001E+00  0.229338201146161E+00  0.538043609314013E-02  0.435797391390330E+01  0.102241144397853E+00
     0.950000000000001E+00  0.229260204841841E+00  0.545043454172709E-02  0.435939205578115E+01  0.103640232975243E+00
     0.960000000000001E+00  0.229181697973721E+00  0.552066837663515E-02  0.436081975239240E+01  0.105046083156253E+00
     0.970000000000001E+00  0.229102688043067E+00  0.559112747348057E-02  0.436225687857185E+01  0.106458525163955E+00
     0.980000000000002E+00  0.229023182203967E+00  0.566180104254587E-02  0.436370331658767E+01  0.107877376209075E+00
     0.990000000000002E+00  0.228943187201341E+00  0.573267761959284E-02  0.436515895739493E+01  0.109302440343054E+00
     0.100000000000000E+01  0.228862709304739E+00  0.580374506298332E-02  0.436662370196976E+01  0.110733508439193E+00
     0.101000000000000E+01  0.228781754238692E+00  0.587499055785156E-02  0.436809746270846E+01  0.112170358316308E+00
     0.102000000000000E+01  0.228700327110402E+00  0.594640062798011E-02  0.436958016487580E+01  0.113612755017547E+00
     0.103000000000000E+01  0.228618432335736E+00  0.601796115592100E-02  0.437107174808302E+01  0.115060451254767E+00
     0.104000000000000E+01  0.228536073564493E+00  0.608965741178425E-02  0.437257216777624E+01  0.116513188026510E+00
     0.105000000000000E+01  0.228453253606031E+00  0.616147409098432E-02  0.437408139671304E+01  0.117970695414917E+00
     0.106000000000000E+01  0.228369974356386E+00  0.623339536109441E-02  0.437559942640520E+01  0.119432693564161E+00
     0.107000000000000E+01  0.228286236728010E+00  0.630540491781527E-02  0.437712626850456E+01  0.120898893840063E+00
     0.108000000000000E+01  0.228202040583314E+00  0.637748604991549E-02  0.437866195610852E+01  0.122369000167563E+00
     0.109000000000000E+01  0.228117384673104E+00  0.644962171285084E-02  0.438020654496366E+01  0.123842710539807E+00
     0.110000000000000E+01  0.228032266581133E+00  0.652179461062258E-02  0.438176011454301E+01  0.125319718689460E+00
     0.111000000000000E+01  0.227946682675707E+00  0.659398728528932E-02  0.438332276897834E+01  0.126799715910245E+00
     0.112000000000000E+01  0.227860628069489E+00  0.666618221340912E-02  0.438489463782525E+01  0.128282393013634E+00
     0.113000000000000E+01  0.227774096588290E+00  0.673836190855689E-02  0.438647587664498E+01  0.129767442403315E+00
     0.114000000000000E+01  0.227687080749795E+00  0.681050902894339E-02  0.438806666738488E+01  0.131254560247407E+00
     0.115000000000000E+01  0.227599571752797E+00  0.688260648905408E-02  0.438966721854624E+01  0.132743448726560E+00
     0.116000000000000E+01  0.227511559477644E+00  0.695463757413419E-02  0.439127776512589E+01  0.134233818333989E+00
     0.117000000000000E+01  0.227423032498205E+00  0.702658605627024E-02  0.439289856832601E+01  0.135725390202299E+00
     0.118000000000000E+01  0.227333978105700E+00  0.709843631076290E-02  0.439452991502569E+01  0.137217898430688E+00
     0.119000000000000E+01  0.227244382344530E+00  0.717017343144700E-02  0.439617211701242E+01  0.138711092385468E+00
     0.120000000000000E+01  0.227154230059948E+00  0.724178334360165E-02  0.439782550997691E+01  0.140204738946804E+00
     0.121000000000000E+01  0.227063504957503E+00  0.731325291309799E-02  0.439949045227362E+01  0.141698624674443E+00
     0.122000000000000E+01  0.226972189673723E+00  0.738457005046239E-02  0.440116732345813E+01  0.143192557866244E+00
     0.123000000000000E+01  0.226880265857591E+00  0.745572380858271E-02  0.440285652261097E+01  0.144686370484108E+00
     0.124000000000000E+01  0.226787714262080E+00  0.752670447285927E-02  0.440455846646315E+01  0.146179919923649E+00
     0.125000000000000E+01  0.226694514844896E+00  0.759750364269305E-02  0.440627358734121E+01  0.147673090605795E+00
     0.126000000000000E+01  0.226600646877440E+00  0.766811430331664E-02  0.440800233095184E+01  0.149165795370861E+00
     0.127000000000000E+01  0.226506089060967E+00  0.773853088709900E-02  0.440974515402715E+01  0.150657976658142E+00
     0.128000000000000E+01  0.226410819648674E+00  0.780874932359762E-02  0.441150252185632E+01  0.152149607457138E+00
     0.129000000000000E+01  0.226314816572523E+00  0.787876707778255E-02  0.441327490572783E+01  0.153640692019428E+00
     0.130000000000000E+01  0.226218057573475E+00  0.794858317601614E-02  0.441506278030891E+01  0.155131266323512E+00
     0.131000000000000E+01  0.226120520333786E+00  0.801819821953518E-02  0.441686662098963E+01  0.156621398288246E+00
     0.132000000000000E+01  0.226022182610032E+00  0.808761438534683E-02  0.441868690121778E+01  0.158111187733688E+00
     0.133000000000000E+01  0.225923022365530E+00  0.815683541460949E-02  0.442052408985178E+01  0.159600766091463E+00
     0.134000000000000E+01  0.225823017900863E+00  0.822586658872612E-02  0.442237864855680E+01  0.161090295869791E+00
     0.135000000000000E+01  0.225722147981270E+00  0.829471469352257E-02  0.442425102926905E+01  0.162579969881181E+00
     0.136000000000000E+01  0.225620391959716E+00  0.836338797201849E-02  0.442614167175131E+01  0.164070010243507E+00
     0.137000000000000E+01  0.225517729894609E+00  0.843189606641878E-02  0.442805100126022E+01  0.165560667167394E+00
     0.138000000000000E+01  0.225414142661151E+00  0.850024995005804E-02  0.442997942634527E+01  0.167052217544997E+00
     0.139000000000000E+01  0.225309612055457E+00  0.856846185011922E-02  0.443192733679585E+01  0.168544963356862E+00
     0.140000000000000E+01  0.225204120890730E+00  0.863654516201638E-02  0.443389510175091E+01  0.170039229914870E+00
     0.141000000000000E+01  0.225097653084844E+00  0.870451435638440E-02  0.443588306798305E+01  0.171535363960224E+00
     0.142000000000000E+01  0.224990193738839E+00  0.877238487965230E-02  0.443789155836690E+01  0.173033731636073E+00
     0.143000000000000E+01  0.224881729205965E+00  0.884017304919281E-02  0.443992087053843E+01  0.174534716354544E+00
     0.144000000000000E+01  0.224772247150995E+00  0.890789594404213E-02  0.444197127575046E+01  0.176038716577978E+00
     0.145000000000000E+01  0.224661736599698E+00  0.897557129216793E-02  0.444404301792621E+01  0.177546143533689E+00
     0.146000000000000E+01  0.224550187978401E+00  0.904321735523735E-02  0.444613631291202E+01  0.179057418881094E+00
     0.147000000000000E+01  0.224437593143735E+00  0.911085281179512E-02  0.444825134792714E+01  0.180572972349061E+00
     0.148000000000000E+01  0.224323945402654E+00  0.917849663971490E-02  0.445038828120845E+01  0.182093239360505E+00
     0.149000000000000E+01  0.224209239523022E+00  0.924616799872875E-02  0.445254724184470E+01  0.183618658659895E+00
     0.150000000000000E+01  0.224093471734982E+00  0.931388611377878E-02  0.445472832979530E+01  0.185149669958281E+00
     0.151000000000000E+01  0.223976639723470E+00  0.938167015986841E-02  0.445693161608698E+01  0.186686711609040E+00
     0.152000000000000E+01  0.223858742612259E+00  0.944953914902428E-02  0.445915714318066E+01  0.188230218326212E+00
     0.153000000000000E+01  0.223739780939920E+00  0.951751181991239E-02  0.446140492550110E+01  0.189780618956063E+00
     0.154000000000000E+01  0.223619756628096E+00  0.958560653058695E-02  0.446367495012140E+01  0.191338334311223E+00
     0.155000000000000E+01  0.223498672942583E+00  0.965384115478810E-02  0.446596717759342E+01  0.192903775075480E+00
     0.156000000000000E+01  0.223376534447569E+00  0.972223298214733E-02  0.446828154291705E+01  0.194477339786400E+00
     0.157000000000000E+01  0.223253346953536E+00  0.979079862260543E-02  0.447061795663891E+01  0.196059412901725E+00
     0.158000000000000E+01  0.223129117459153E+00  0.985955391530345E-02  0.447297630607432E+01  0.197650362954929E+00
     0.159000000000000E+01  0.223003854087631E+00  0.992851384216508E-02  0.447535645664396E+01  0.199250540804339E+00
     0.160000000000000E+01  0.222877566017849E+00  0.999769244635624E-02  0.447775825331898E+01  0.200860277979846E+00
     0.161000000000000E+01  0.222750263410647E+00  0.100671027557826E-01  0.448018152216789E+01  0.202479885130708E+00
     0.162000000000000E+01  0.222621957330599E+00  0.101367567117646E-01  0.448262607199892E+01  0.204109650577673E+00
     0.163000000000000E+01  0.222492659663544E+00  0.102066651030181E-01  0.448509169609300E+01  0.205749838972550E+00
     0.164000000000000E+01  0.222362383030222E+00  0.102768375050618E-01  0.448757817402105E+01  0.207400690068194E+00
     0.165000000000000E+01  0.222231140696196E+00  0.103472822251731E-01  0.449008527354183E+01  0.209062417602152E+00
     0.166000000000000E+01  0.222098946478371E+00  0.104180062530168E-01  0.449261275257511E+01  0.210735208297210E+00
