#        \hbar \omega(eV)           Re(1/eps)            -Im(1/eps)               Re(eps)                Im(eps)
     0.000000000000000E+00  0.233318915881023E+00  0.271229519491037E-15  0.428597911242624E+01  0.498238237916714E-14
     0.100000000000000E-01  0.233318439119308E+00  0.499539863930987E-04  0.428598767390565E+01  0.917639303397664E-03
     0.200000000000000E-01  0.233317008842707E+00  0.999125367565872E-04  0.428601335831551E+01  0.183538469538076E-02
     0.300000000000000E-01  0.233314625076960E+00  0.149880217873525E-03  0.428605616556869E+01  0.275334232349003E-02
     0.400000000000000E-01  0.233311287865271E+00  0.199861602147736E-03  0.428611609551406E+01  0.367161845309136E-02
     0.500000000000000E-01  0.233306997268755E+00  0.249861270406483E-03  0.428619314792772E+01  0.459031952614396E-02
     0.600000000000000E-01  0.233301753367085E+00  0.299883814692978E-03  0.428628732250046E+01  0.550955221977743E-02
     0.700000000000000E-01  0.233295556259315E+00  0.349933841045421E-03  0.428639861882156E+01  0.642942350461562E-02
     0.800000000000000E-01  0.233288406064894E+00  0.400015972258743E-03  0.428652703635924E+01  0.735004070277566E-02
     0.900000000000000E-01  0.233280302924857E+00  0.450134850624961E-03  0.428667257443719E+01  0.827151154546444E-02
     0.100000000000000E+00  0.233271247003231E+00  0.500295140647645E-03  0.428683523220728E+01  0.919394423008641E-02
     0.110000000000000E+00  0.233261238488626E+00  0.550501531725608E-03  0.428701500861845E+01  0.101174474767706E-01
     0.120000000000000E+00  0.233250277596024E+00  0.600758740800393E-03  0.428721190238181E+01  0.110421305842135E-01
     0.130000000000000E+00  0.233238364568785E+00  0.651071514961593E-03  0.428742591193150E+01  0.119681034847233E-01
     0.140000000000000E+00  0.233225499680853E+00  0.701444634003393E-03  0.428765703538159E+01  0.128954767983383E-01
     0.150000000000000E+00  0.233211683239171E+00  0.751882912924983E-03  0.428790527047899E+01  0.138243618858827E-01
     0.160000000000000E+00  0.233196915586344E+00  0.802391204366731E-03  0.428817061455134E+01  0.147548709007941E-01
     0.170000000000000E+00  0.233181197103498E+00  0.852974400973082E-03  0.428845306445127E+01  0.156871168395620E-01
     0.180000000000000E+00  0.233164528213390E+00  0.903637437672238E-03  0.428875261649561E+01  0.166212135905741E-01
     0.190000000000000E+00  0.233146909383744E+00  0.954385293861568E-03  0.428906926640018E+01  0.175572759811646E-01
     0.200000000000000E+00  0.233128341130847E+00  0.100522299548662E-02  0.428940300920953E+01  0.184954198226240E-01
     0.210000000000000E+00  0.233108824023376E+00  0.105615561700030E-02  0.428975383922216E+01  0.194357619529184E-01
     0.220000000000000E+00  0.233088358686497E+00  0.110718828318752E-02  0.429012174991032E+01  0.203784202768244E-01
     0.230000000000000E+00  0.233066945806230E+00  0.115832617083917E-02  0.429050673383467E+01  0.213235138031725E-01
     0.240000000000000E+00  0.233044586134043E+00  0.120957451025778E-02  0.429090878255435E+01  0.222711626788605E-01
     0.250000000000000E+00  0.233021280491790E+00  0.126093858657554E-02  0.429132788653051E+01  0.232214882192471E-01
     0.260000000000000E+00  0.232997029776848E+00  0.131242374086384E-02  0.429176403502557E+01  0.241746129345416E-01
     0.270000000000000E+00  0.232971834967581E+00  0.136403537101150E-02  0.429221721599634E+01  0.251306605517280E-01
     0.280000000000000E+00  0.232945697129090E+00  0.141577893234713E-02  0.429268741598140E+01  0.260897560315534E-01
     0.290000000000000E+00  0.232918617419206E+00  0.146765993797921E-02  0.429317461998364E+01  0.270520255800710E-01
     0.300000000000000E+00  0.232890597094808E+00  0.151968395882529E-02  0.429367881134645E+01  0.280175966541706E-01
     0.310000000000000E+00  0.232861637518401E+00  0.157185662329989E-02  0.429419997162474E+01  0.289865979605127E-01
     0.320000000000000E+00  0.232831740164972E+00  0.162418361662865E-02  0.429473808045048E+01  0.299591594472318E-01
     0.330000000000000E+00  0.232800906629129E+00  0.167667067975428E-02  0.429529311539258E+01  0.309354122877287E-01
     0.340000000000000E+00  0.232769138632465E+00  0.172932360779769E-02  0.429586505181234E+01  0.319154888558582E-01
     0.350000000000000E+00  0.232736438031214E+00  0.178214824803632E-02  0.429645386271299E+01  0.328995226917407E-01
     0.360000000000000E+00  0.232702806824109E+00  0.183515049735933E-02  0.429705951858541E+01  0.338876484574388E-01
     0.370000000000000E+00  0.232668247160448E+00  0.188833629915837E-02  0.429768198724933E+01  0.348800018816730E-01
     0.380000000000000E+00  0.232632761348356E+00  0.194171163961092E-02  0.429832123369089E+01  0.358767196927457E-01
     0.390000000000000E+00  0.232596351863193E+00  0.199528254331258E-02  0.429897721989696E+01  0.368779395388110E-01
     0.400000000000000E+00  0.232559021356084E+00  0.204905506821386E-02  0.429964990468714E+01  0.378837998946281E-01
     0.410000000000000E+00  0.232520772662522E+00  0.210303529981724E-02  0.430033924354397E+01  0.388944399539235E-01
     0.420000000000000E+00  0.232481608810986E+00  0.215722934459059E-02  0.430104518844276E+01  0.399099995065091E-01
     0.430000000000000E+00  0.232441533031546E+00  0.221164332255462E-02  0.430176768768144E+01  0.409306187993118E-01
     0.440000000000000E+00  0.232400548764379E+00  0.226628335900386E-02  0.430250668571207E+01  0.419564383805218E-01
     0.450000000000000E+00  0.232358659668086E+00  0.232115557532407E-02  0.430326212297573E+01  0.429875989261353E-01
     0.460000000000000E+00  0.232315869627809E+00  0.237626607887285E-02  0.430403393574134E+01  0.440242410482125E-01
     0.470000000000000E+00  0.232272182762990E+00  0.243162095189608E-02  0.430482205595102E+01  0.450665050843220E-01
     0.480000000000000E+00  0.232227603434702E+00  0.248722623945931E-02  0.430562641107371E+01  0.461145308677429E-01
     0.490000000000000E+00  0.232182136252465E+00  0.254308793638181E-02  0.430644692396828E+01  0.471684574781581E-01
     0.500000000000000E+00  0.232135786080391E+00  0.259921197317094E-02  0.430728351275961E+01  0.482284229727916E-01
     0.510000000000000E+00  0.232088558042603E+00  0.265560420096619E-02  0.430813609072860E+01  0.492945640981268E-01
     0.520000000000000E+00  0.232040457527707E+00  0.271227037551584E-02  0.430900456621992E+01  0.503670159826558E-01
     0.530000000000000E+00  0.231991490192296E+00  0.276921614022488E-02  0.430988884256871E+01  0.514459118113494E-01
     0.540000000000000E+00  0.231941661963270E+00  0.282644700832953E-02  0.431078881804974E+01  0.525313824829216E-01
     0.550000000000000E+00  0.231890979038860E+00  0.288396834427361E-02  0.431170438585156E+01  0.536235562513098E-01
     0.560000000000000E+00  0.231839447888226E+00  0.294178534438184E-02  0.431263543407794E+01  0.547225583531792E-01
     0.570000000000000E+00  0.231787075249499E+00  0.299990301694812E-02  0.431358184577943E+01  0.558285106237144E-01
     0.580000000000000E+00  0.231733868126132E+00  0.305832616187936E-02  0.431454349901727E+01  0.569415311033814E-01
     0.590000000000000E+00  0.231679833781439E+00  0.311705935005982E-02  0.431552026696240E+01  0.580617336388364E-01
     0.600000000000000E+00  0.231624979731253E+00  0.317610690262447E-02  0.431651201803055E+01  0.591892274815748E-01
     0.610000000000000E+00  0.231569313734596E+00  0.323547287035333E-02  0.431751861605579E+01  0.603241168884071E-01
     0.620000000000000E+00  0.231512843782309E+00  0.329516101342077E-02  0.431853992050340E+01  0.614665007282480E-01
     0.630000000000000E+00  0.231455578083650E+00  0.335517478175279E-02  0.431957578672204E+01  0.626164721000672E-01
     0.640000000000000E+00  0.231397525050824E+00  0.341551729626171E-02  0.432062606623575E+01  0.637741179671914E-01
     0.650000000000000E+00  0.231338693281533E+00  0.347619133123883E-02  0.432169060707432E+01  0.649395188133333E-01
     0.660000000000000E+00  0.231279091539633E+00  0.353719929819149E-02  0.432276925414027E+01  0.661127483258402E-01
     0.670000000000000E+00  0.231218728734013E+00  0.359854323140896E-02  0.432386184961033E+01  0.672938731116457E-01
     0.680000000000000E+00  0.231157613895955E+00  0.366022477553276E-02  0.432496823336620E+01  0.684829524511549E-01
     0.690000000000001E+00  0.231095756155138E+00  0.372224517538745E-02  0.432608824345195E+01  0.696800380950284E-01
     0.700000000000001E+00  0.231033164714645E+00  0.378460526829930E-02  0.432722171655061E+01  0.708851741081590E-01
     0.710000000000001E+00  0.230969848825314E+00  0.384730547909083E-02  0.432836848847401E+01  0.720983967644397E-01
     0.720000000000001E+00  0.230905817759778E+00  0.391034581788819E-02  0.432952839465871E+01  0.733197344949310E-01
     0.730000000000001E+00  0.230841080786671E+00  0.397372588081785E-02  0.433070127065933E+01  0.745492078908313E-01
     0.740000000000001E+00  0.230775647145446E+00  0.403744485359773E-02  0.433188695263047E+01  0.757868297612970E-01
     0.750000000000001E+00  0.230709526022271E+00  0.410150151794837E-02  0.433308527778847E+01  0.770326052446293E-01
     0.760000000000001E+00  0.230642726527465E+00  0.416589426066363E-02  0.433429608484419E+01  0.782865319696917E-01
     0.770000000000001E+00  0.230575257674989E+00  0.423062108509023E-02  0.433551921439694E+01  0.795486002626338E-01
     0.780000000000001E+00  0.230507128364359E+00  0.429567962467366E-02  0.433675450928268E+01  0.808187933923248E-01
     0.790000000000001E+00  0.230438347365410E+00  0.436106715813980E-02  0.433800181486836E+01  0.820970878461219E-01
     0.800000000000001E+00  0.230368923306211E+00  0.442678062579826E-02  0.433926097928690E+01  0.833834536260637E-01
     0.810000000000001E+00  0.230298864664352E+00  0.449281664638231E-02  0.434053185360843E+01  0.846778545541966E-01
     0.820000000000001E+00  0.230228179761752E+00  0.455917153378156E-02  0.434181429194576E+01  0.859802485746520E-01
     0.830000000000001E+00  0.230156876762963E+00  0.462584131298489E-02  0.434310815149395E+01  0.872905880393624E-01
     0.840000000000001E+00  0.230084963676866E+00  0.469282173453254E-02  0.434441329250716E+01  0.886088199640120E-01
     0.850000000000001E+00  0.230012448361553E+00  0.476010828678241E-02  0.434572957821623E+01  0.899348862408797E-01
     0.860000000000001E+00  0.229939338531908E+00  0.482769620532683E-02  0.434705687469723E+01  0.912687237960525E-01
     0.870000000000001E+00  0.229865641769481E+00  0.489558047895423E-02  0.434839505069868E+01  0.926102646794431E-01
     0.880000000000001E+00  0.229791365533934E+00  0.496375585163333E-02  0.434974397744177E+01  0.939594360778755E-01
     0.890000000000001E+00  0.229716517175378E+00  0.503221682010465E-02  0.435110352840718E+01  0.953161602435011E-01
     0.900000000000001E+00  0.229641103946676E+00  0.510095762679298E-02  0.435247357912588E+01  0.966803543324393E-01
     0.910000000000001E+00  0.229565133014933E+00  0.516997224789992E-02  0.435385400699003E+01  0.980519301512662E-01
     0.920000000000001E+00  0.229488611471125E+00  0.523925437669357E-02  0.435524469110355E+01  0.994307938122097E-01
     0.930000000000001E+00  0.229411546336984E+00  0.530879740217848E-02  0.435664551218992E+01  0.100816845301033E+00
     0.940000000000001E+00  0.229333944568170E+00  0.537859438349588E-02  0.435805635257581E+01  0.102209977964928E+00
     0.950000000000001E+00  0.229255813052883E+00  0.544863802056771E-02  0.435947709626681E+01  0.103610077930867E+00
     0.960000000000001E+00  0.229177158605085E+00  0.551892062165233E-02  0.436090762913135E+01  0.105017023467888E+00
     0.970000000000001E+00  0.229097987951643E+00  0.558943406862012E-02  0.436234783920549E+01  0.106430684309516E+00
     0.980000000000002E+00  0.229018307712790E+00  0.566016978087884E-02  0.436379761713067E+01  0.107850920954887E+00
     0.990000000000002E+00  0.228938124375538E+00  0.573111867897924E-02  0.436525685673043E+01  0.109277583968986E+00
     0.100000000000000E+01  0.228857444259675E+00  0.580227114900823E-02  0.436672545573319E+01  0.110710513304045E+00
     0.101000000000000E+01  0.228776273476317E+00  0.587361700892646E-02  0.436820331664105E+01  0.112149537664918E+00
     0.102000000000000E+01  0.228694617879035E+00  0.594514547803270E-02  0.436969034774353E+01  0.113594473941803E+00
     0.103000000000000E+01  0.228612483007857E+00  0.601684515073502E-02  0.437118646426999E+01  0.115045126733511E+00
     0.104000000000000E+01  0.228529874026472E+00  0.608870397578049E-02  0.437269158967338E+01  0.116501287984004E+00
     0.105000000000000E+01  0.228446795653325E+00  0.616070924204519E-02  0.437420565703137E+01  0.117962736753700E+00
     0.106000000000000E+01  0.228363252087266E+00  0.623284757190932E-02  0.437572861055125E+01  0.119429239145650E+00
     0.107000000000000E+01  0.228279246928700E+00  0.630510492314926E-02  0.437726040715887E+01  0.120900548404665E+00
     0.108000000000000E+01  0.228194783097214E+00  0.637746660016343E-02  0.437880101815245E+01  0.122376405205250E+00
     0.109000000000000E+01  0.228109862746861E+00  0.644991727521809E-02  0.438035043089667E+01  0.123856538141458E+00
     0.110000000000000E+01  0.228024487180339E+00  0.652244102025568E-02  0.438190865053275E+01  0.125340664428922E+00
     0.111000000000000E+01  0.227938656763344E+00  0.659502134964979E-02  0.438347570167808E+01  0.126828490826165E+00
     0.112000000000000E+01  0.227852370840551E+00  0.666764127412502E-02  0.438505163008662E+01  0.128319714778808E+00
     0.113000000000000E+01  0.227765627654604E+00  0.674028336588399E-02  0.438663650424223E+01  0.129814025786896E+00
     0.114000000000000E+01  0.227678424269595E+00  0.681292983480296E-02  0.438823041685535E+01  0.131311106991776E+00
     0.115000000000000E+01  0.227590756500423E+00  0.688556261537363E-02  0.438983348623503E+01  0.132810636975404E+00
     0.116000000000000E+01  0.227502618849543E+00  0.695816346388193E-02  0.439144585750655E+01  0.134312291761028E+00
     0.117000000000000E+01  0.227414004452405E+00  0.703071406513086E-02  0.439306770364876E+01  0.135815747000663E+00
     0.118000000000000E+01  0.227324905032929E+00  0.710319614783396E-02  0.439469922632428E+01  0.137320680331060E+00
     0.119000000000000E+01  0.227235310870217E+00  0.717559160763212E-02  0.439634065647935E+01  0.138826773876453E+00
     0.120000000000000E+01  0.227145210777583E+00  0.724788263652288E-02  0.439799225469185E+01  0.140333716873105E+00
     0.121000000000000E+01  0.227054592094872E+00  0.732005185734141E-02  0.439965431124903E+01  0.141841208387725E+00
     0.122000000000000E+01  0.226963440694867E+00  0.739208246179745E-02  0.440132714593944E+01  0.143348960099140E+00
     0.123000000000000E+01  0.226871741004365E+00  0.746395835045803E-02  0.440301110754835E+01  0.144856699110502E+00
     0.124000000000000E+01  0.226779476040387E+00  0.753566427297455E-02  0.440470657304847E+01  0.146364170757438E+00
     0.125000000000000E+01  0.226686627461653E+00  0.760718596678489E-02  0.440641394648390E+01  0.147871141376471E+00
     0.126000000000000E+01  0.226593175635410E+00  0.767851029248389E-02  0.440813365754731E+01  0.149377400997209E+00
     0.127000000000000E+01  0.226499099719241E+00  0.774962536404594E-02  0.440986615985813E+01  0.150882765922011E+00
     0.128000000000000E+01  0.226404377757506E+00  0.782052067210632E-02  0.441161192895059E+01  0.152387081157158E+00
     0.129000000000000E+01  0.226308986791576E+00  0.789118719856265E-02  0.441337145998893E+01  0.153890222661113E+00
     0.130000000000000E+01  0.226212902983055E+00  0.796161752084359E-02  0.441514526522748E+01  0.155392099377009E+00
     0.131000000000000E+01  0.226116101748760E+00  0.803180590430971E-02  0.441693387124100E+01  0.156892655019308E+00
     0.132000000000000E+01  0.226018557906158E+00  0.810174838139797E-02  0.441873781595230E+01  0.158391869587441E+00
     0.133000000000000E+01  0.225920245827767E+00  0.817144281629380E-02  0.442055764548810E+01  0.159889760582921E+00
     0.134000000000000E+01  0.225821139602843E+00  0.824088895411106E-02  0.442239391089724E+01  0.161386383910456E+00
     0.135000000000000E+01  0.225721213204585E+00  0.831008845377588E-02  0.442424716476732E+01  0.162881834447968E+00
     0.136000000000000E+01  0.225620440661026E+00  0.837904490403886E-02  0.442611795777689E+01  0.164376246275064E+00
     0.137000000000000E+01  0.225518796227661E+00  0.844776382227998E-02  0.442800683522257E+01  0.165869792554407E+00
     0.138000000000000E+01  0.225416254559894E+00  0.851625263601313E-02  0.442991433355937E+01  0.167362685065212E+00
     0.139000000000000E+01  0.225312790883403E+00  0.858452064723781E-02  0.443184097699253E+01  0.168855173392952E+00
     0.140000000000000E+01  0.225208381160530E+00  0.865257898002163E-02  0.443378727415833E+01  0.170347543784012E+00
     0.141000000000000E+01  0.225103002250929E+00  0.872044051191786E-02  0.443575371492898E+01  0.171840117678382E+00
     0.142000000000000E+01  0.224996632064753E+00  0.878811979003056E-02  0.443774076737556E+01  0.173333249937602E+00
     0.143000000000000E+01  0.224889249706905E+00  0.885563293272370E-02  0.443974887491786E+01  0.174827326788571E+00
     0.144000000000000E+01  0.224780835610864E+00  0.892299751813406E-02  0.444177845369029E+01  0.176322763507265E+00
     0.145000000000000E+01  0.224671371660980E+00  0.899023246078161E-02  0.444382989014539E+01  0.177820001868601E+00
     0.146000000000000E+01  0.224560841302089E+00  0.905735787767990E-02  0.444590353891689E+01  0.179319507391066E+00
     0.147000000000000E+01  0.224449229635714E+00  0.912439494542691E-02  0.444799972095662E+01  0.180821766405827E+00
     0.148000000000000E+01  0.224336523502142E+00  0.919136574980619E-02  0.445011872195845E+01  0.182327282981140E+00
     0.149000000000000E+01  0.224222711547924E+00  0.925829312945033E-02  0.445226079107772E+01  0.183836575733078E+00
     0.150000000000000E+01  0.224107784278595E+00  0.932520051511394E-02  0.445442613994968E+01  0.185350174553321E+00
     0.151000000000000E+01  0.223991734096475E+00  0.939211176607348E-02  0.445661494200916E+01  0.186868617284221E+00
     0.152000000000000E+01  0.223874555323641E+00  0.945905100512132E-02  0.445882733210903E+01  0.188392446370142E+00
     0.153000000000000E+01  0.223756244210330E+00  0.952604245355130E-02  0.446106340643223E+01  0.189922205512671E+00
     0.154000000000000E+01  0.223636798929120E+00  0.959311026744868E-02  0.446332322269006E+01  0.191458436355552E+00
     0.155000000000000E+01  0.223516219555391E+00  0.966027837650098E-02  0.446560680059667E+01  0.193001675223257E+00
     0.156000000000000E+01  0.223394508034586E+00  0.972757032644139E-02  0.446791412260925E+01  0.194552449935131E+00
     0.157000000000000E+01  0.223271668137040E+00  0.979500912612617E-02  0.447024513491896E+01  0.196111276714595E+00
     0.158000000000000E+01  0.223147705400922E+00  0.986261710013760E-02  0.447259974868167E+01  0.197678657211219E+00
     0.159000000000000E+01  0.223022627064250E+00  0.993041574769215E-02  0.447497784147002E+01  0.199255075650710E+00
     0.160000000000000E+01  0.222896441986554E+00  0.999842560852820E-02  0.447737925893537E+01  0.200840996126501E+00
     0.161000000000000E+01  0.222769160561116E+00  0.100666661363480E-01  0.447980381666185E+01  0.202436860044190E+00
     0.162000000000000E+01  0.222640794618481E+00  0.101351555802946E-01  0.448225130219909E+01  0.204043083728713E+00
     0.163000000000000E+01  0.222511357322074E+00  0.102039108748632E-01  0.448472147725736E+01  0.205660056202350E+00
     0.164000000000000E+01  0.222380863056610E+00  0.102729475385724E-01  0.448721408005222E+01  0.207288137140584E+00
     0.165000000000000E+01  0.222249327310043E+00  0.103422795816598E-01  0.448972882778413E+01  0.208927655011547E+00
     0.166000000000000E+01  0.222116766549763E+00  0.104119194230139E-01  0.449226541923929E+01  0.210578905403938E+00
