#        \hbar \omega(eV)           Re(1/eps)            -Im(1/eps)               Re(eps)                Im(eps)
     0.000000000000000E+00  0.233316325221475E+00  -.555813283617214E-16  0.428602670237821E+01  -.102103038561857E-14
     0.100000000000000E-01  0.233315848860917E+00  0.500199233729214E-04  0.428603525615724E+01  0.918870947401536E-03
     0.200000000000000E-01  0.233314419789753E+00  0.100044455529440E-03  0.428606091742870E+01  0.183784881893099E-02
     0.300000000000000E-01  0.233312038039609E+00  0.150078207959640E-03  0.428610368599377E+01  0.275704059562477E-02
     0.400000000000000E-01  0.233308703663529E+00  0.200125797562182E-03  0.428616356151459E+01  0.367655337225277E-02
     0.500000000000000E-01  0.233304416736430E+00  0.250191849336740E-03  0.428624054350539E+01  0.459649441396229E-02
     0.600000000000000E-01  0.233299177355796E+00  0.300280999062188E-03  0.428633463131896E+01  0.551697121265198E-02
     0.700000000000000E-01  0.233292985642516E+00  0.350397895955409E-03  0.428644582413037E+01  0.643809154298212E-02
     0.800000000000000E-01  0.233285841741994E+00  0.400547205305345E-03  0.428657412091534E+01  0.735996351791366E-02
     0.900000000000000E-01  0.233277745825358E+00  0.450733611076647E-03  0.428671952042662E+01  0.828269564367767E-02
     0.100000000000000E+00  0.233268698090963E+00  0.500961818476767E-03  0.428688202116485E+01  0.920639687404891E-02
     0.110000000000000E+00  0.233258698766033E+00  0.551236556479969E-03  0.428706162134641E+01  0.101311766638071E-01
     0.120000000000000E+00  0.233247748108555E+00  0.601562580301071E-03  0.428725831886662E+01  0.110571450212429E-01
     0.130000000000000E+00  0.233235846409359E+00  0.651944673811199E-03  0.428747211125920E+01  0.119844125595667E-01
     0.140000000000000E+00  0.233222993994417E+00  0.702387651887056E-03  0.428770299565140E+01  0.129130905470529E-01
     0.150000000000000E+00  0.233209191227359E+00  0.752896362684470E-03  0.428795096871498E+01  0.138432909557474E-01
     0.160000000000000E+00  0.233194438512236E+00  0.803475689826112E-03  0.428821602661234E+01  0.147751265085379E-01
     0.170000000000000E+00  0.233178736296471E+00  0.854130554492319E-03  0.428849816493895E+01  0.157087107243836E-01
     0.180000000000000E+00  0.233162085074072E+00  0.904865917403004E-03  0.428879737866068E+01  0.166441579614650E-01
     0.190000000000000E+00  0.233144485389073E+00  0.955686780677426E-03  0.428911366204664E+01  0.175815834580020E-01
     0.200000000000000E+00  0.233125937839190E+00  0.100659818955758E-02  0.428944700859783E+01  0.185211033704715E-01
     0.210000000000000E+00  0.233106443079772E+00  0.105760523397952E-02  0.428979741097002E+01  0.194628348089079E-01
     0.220000000000000E+00  0.233086001827931E+00  0.110871304997587E-02  0.429016486089303E+01  0.204068958689823E-01
     0.230000000000000E+00  0.233064614866978E+00  0.115992682089113E-02  0.429054934908413E+01  0.213534056604866E-01
     0.240000000000000E+00  0.233042283051063E+00  0.121125177839013E-02  0.429095086515729E+01  0.223024843318566E-01
     0.250000000000000E+00  0.233019007310094E+00  0.126269320323853E-02  0.429136939752708E+01  0.232542530903167E-01
     0.260000000000000E+00  0.232994788654886E+00  0.131425642583256E-02  0.429180493330789E+01  0.242088342172089E-01
     0.270000000000000E+00  0.232969628182559E+00  0.136594682645382E-02  0.429225745820834E+01  0.251663510780388E-01
     0.280000000000000E+00  0.232943527082186E+00  0.141776983522361E-02  0.429272695642070E+01  0.261269281267355E-01
     0.290000000000000E+00  0.232916486640659E+00  0.146973093172924E-02  0.429321341050599E+01  0.270906909036036E-01
     0.300000000000000E+00  0.232888508248789E+00  0.152183564429394E-02  0.429371680127442E+01  0.280577660264058E-01
     0.310000000000000E+00  0.232859593407639E+00  0.157408954886046E-02  0.429423710766121E+01  0.290282811739916E-01
     0.320000000000000E+00  0.232829743735021E+00  0.162649826745690E-02  0.429477430659904E+01  0.300023650618786E-01
     0.330000000000000E+00  0.232798960972211E+00  0.167906746621291E-02  0.429532837288629E+01  0.309801474091438E-01
     0.340000000000000E+00  0.232767246990806E+00  0.173180285289334E-02  0.429589927905217E+01  0.319617588959964E-01
     0.350000000000000E+00  0.232734603799731E+00  0.178471017391568E-02  0.429648699521888E+01  0.329473311113714E-01
     0.360000000000000E+00  0.232701033552351E+00  0.183779521081829E-02  0.429709148896163E+01  0.339369964898978E-01
     0.370000000000000E+00  0.232666538553641E+00  0.189106377614595E-02  0.429771272516720E+01  0.349308882375944E-01
     0.380000000000000E+00  0.232631121267431E+00  0.194452170872090E-02  0.429835066589094E+01  0.359291402456479E-01
     0.390000000000000E+00  0.232594784323587E+00  0.199817486826866E-02  0.429900527021479E+01  0.369318869917006E-01
     0.400000000000000E+00  0.232557530525185E+00  0.205202912937029E-02  0.429967649410524E+01  0.379392634280539E-01
     0.410000000000000E+00  0.232519362855519E+00  0.210609037471619E-02  0.430036429027406E+01  0.389514048563223E-01
     0.420000000000000E+00  0.232480284484974E+00  0.216036448764004E-02  0.430106860804174E+01  0.399684467880859E-01
     0.430000000000000E+00  0.232440298777611E+00  0.221485734391734E-02  0.430178939320589E+01  0.409905247912439E-01
     0.440000000000000E+00  0.232399409297467E+00  0.226957480281861E-02  0.430252658791516E+01  0.420177743218380E-01
     0.450000000000000E+00  0.232357619814417E+00  0.232452269741544E-02  0.430328013055108E+01  0.430503305413106E-01
     0.460000000000000E+00  0.232314934309578E+00  0.237970682414588E-02  0.430404995561873E+01  0.440883281192843E-01
     0.470000000000000E+00  0.232271356980125E+00  0.243513293165658E-02  0.430483599364821E+01  0.451319010221753E-01
     0.480000000000000E+00  0.232226892243422E+00  0.249080670894995E-02  0.430563817110915E+01  0.461811822881743E-01
     0.490000000000000E+00  0.232181544740441E+00  0.254673377287830E-02  0.430645641033878E+01  0.472363037893413E-01
     0.500000000000000E+00  0.232135319338253E+00  0.260291965504081E-02  0.430729062948736E+01  0.482973959819057E-01
     0.510000000000000E+00  0.232088221131622E+00  0.265936978815485E-02  0.430814074248070E+01  0.493645876460691E-01
     0.520000000000000E+00  0.232040255443562E+00  0.271608949198966E-02  0.430900665900248E+01  0.504380056169897E-01
     0.530000000000000E+00  0.231991427824739E+00  0.277308395896708E-02  0.430988828449843E+01  0.515177745089434E-01
     0.540000000000000E+00  0.231941744051717E+00  0.283035823955199E-02  0.431078552020248E+01  0.526040164349458E-01
     0.550000000000000E+00  0.231891210123948E+00  0.288791722757160E-02  0.431169826318687E+01  0.536968507244940E-01
     0.560000000000000E+00  0.231839832259483E+00  0.294576564561899E-02  0.431262640643670E+01  0.547963936423650E-01
     0.570000000000000E+00  0.231787616889385E+00  0.300390803071107E-02  0.431356983894923E+01  0.559027581116913E-01
     0.580000000000000E+00  0.231734570650850E+00  0.306234872038235E-02  0.431452844585760E+01  0.570160534447508E-01
     0.590000000000000E+00  0.231680700379081E+00  0.312109183940510E-02  0.431550210857881E+01  0.581363850850866E-01
     0.600000000000000E+00  0.231626013097983E+00  0.318014128732946E-02  0.431649070498375E+01  0.592638543646038E-01
     0.610000000000000E+00  0.231570516009816E+00  0.323950072703544E-02  0.431749410958761E+01  0.603985582792736E-01
     0.620000000000000E+00  0.231514216483912E+00  0.329917357447993E-02  0.431851219375783E+01  0.615405892869013E-01
     0.630000000000000E+00  0.231457122044687E+00  0.335916298980440E-02  0.431954482593599E+01  0.626900351300656E-01
     0.640000000000000E+00  0.231399240359180E+00  0.341947186994362E-02  0.432059187186842E+01  0.638469786868296E-01
     0.650000000000000E+00  0.231340579224372E+00  0.348010284283968E-02  0.432165319484160E+01  0.650114978511776E-01
     0.660000000000000E+00  0.231281146554620E+00  0.354105826331953E-02  0.432272865591522E+01  0.661836654441776E-01
     0.670000000000000E+00  0.231220950369526E+00  0.360234021063778E-02  0.432381811414745E+01  0.673635491558391E-01
     0.680000000000000E+00  0.231159998782642E+00  0.366395048761988E-02  0.432492142680445E+01  0.685512115163057E-01
     0.690000000000001E+00  0.231098299991330E+00  0.372589062126525E-02  0.432603844954830E+01  0.697467098936234E-01
     0.700000000000001E+00  0.231035862268194E+00  0.378816186458611E-02  0.432716903659561E+01  0.709500965136785E-01
     0.710000000000001E+00  0.230972693954403E+00  0.385076519936988E-02  0.432831304084055E+01  0.721614184962399E-01
     0.720000000000001E+00  0.230908803455244E+00  0.391370133946219E-02  0.432947031393646E+01  0.733807178993035E-01
     0.730000000000001E+00  0.230844199238103E+00  0.397697073407846E-02  0.433064070633204E+01  0.746080317622665E-01
     0.740000000000001E+00  0.230778889833109E+00  0.404057357056974E-02  0.433182406725838E+01  0.758433921368619E-01
     0.750000000000001E+00  0.230712883836423E+00  0.410450977599694E-02  0.433302024466688E+01  0.770868260934986E-01
     0.760000000000001E+00  0.230646189916178E+00  0.416877901681255E-02  0.433422908511904E+01  0.783383556895927E-01
     0.770000000000001E+00  0.230578816820805E+00  0.423338069591663E-02  0.433545043363289E+01  0.795979978859396E-01
     0.780000000000001E+00  0.230510773389416E+00  0.429831394634820E-02  0.433668413349312E+01  0.808657643970941E-01
     0.790000000000001E+00  0.230442068563666E+00  0.436357762090020E-02  0.433793002603654E+01  0.821416614623663E-01
     0.800000000000001E+00  0.230372711400370E+00  0.442917027700895E-02  0.433918795042670E+01  0.834256895252849E-01
     0.810000000000001E+00  0.230302711084080E+00  0.449509015637103E-02  0.434045774343387E+01  0.847178428113723E-01
     0.820000000000001E+00  0.230232076938403E+00  0.456133515888186E-02  0.434173923924371E+01  0.860181087970542E-01
     0.830000000000001E+00  0.230160818435042E+00  0.462790281067161E-02  0.434303226931486E+01  0.873264675658613E-01
     0.840000000000001E+00  0.230088945199136E+00  0.469479022623201E-02  0.434433666231269E+01  0.886428910525666E-01
     0.850000000000001E+00  0.230016467009584E+00  0.476199406487776E-02  0.434565224414500E+01  0.899673421806751E-01
     0.860000000000001E+00  0.229943393792941E+00  0.482951048206193E-02  0.434697883812657E+01  0.912997739040857E-01
     0.870000000000001E+00  0.229869735609500E+00  0.489733507635780E-02  0.434831626529930E+01  0.926401281694751E-01
     0.880000000000001E+00  0.229795502630250E+00  0.496546283321952E-02  0.434966434493269E+01  0.939883348217462E-01
     0.890000000000001E+00  0.229720705103669E+00  0.503388806692880E-02  0.435102289522469E+01  0.953443104805086E-01
     0.900000000000001E+00  0.229645353311237E+00  0.510260436241383E-02  0.435239173422314E+01  0.967079574211188E-01
     0.910000000000001E+00  0.229569457511192E+00  0.517160451887439E-02  0.435377068097698E+01  0.980791624982855E-01
     0.920000000000001E+00  0.229493027870060E+00  0.524088049735381E-02  0.435515955692446E+01  0.994577961543694E-01
     0.930000000000001E+00  0.229416074382073E+00  0.531042337454867E-02  0.435655818751586E+01  0.100843711557177E+00
     0.940000000000001E+00  0.229338606776881E+00  0.538022330523285E-02  0.435796640406074E+01  0.102236743913598E+00
     0.950000000000001E+00  0.229260634416538E+00  0.545026949568094E-02  0.435938404577987E+01  0.103636710005362E+00
     0.960000000000001E+00  0.229182166183049E+00  0.552055019040159E-02  0.436081096203519E+01  0.105043407991617E+00
     0.970000000000001E+00  0.229103210358413E+00  0.559105267432759E-02  0.436224701469889E+01  0.106456617519477E+00
     0.980000000000002E+00  0.229023774499344E+00  0.566176329235260E-02  0.436369208061738E+01  0.107876100178587E+00
     0.990000000000002E+00  0.228943865309539E+00  0.573266748775667E-02  0.436514605411355E+01  0.109301600328504E+00
     0.100000000000000E+01  0.228863488512398E+00  0.580374986062540E-02  0.436660884946911E+01  0.110732846319168E+00
     0.101000000000000E+01  0.228782648727703E+00  0.587499424684851E-02  0.436808040331796E+01  0.112169552114104E+00
     0.102000000000000E+01  0.228701349355788E+00  0.594638381769295E-02  0.436956067688103E+01  0.113611419314414E+00
     0.103000000000000E+01  0.228619592472865E+00  0.601790119929898E-02  0.437104965797062E+01  0.115058139568764E+00
     0.104000000000000E+01  0.228537378741261E+00  0.608952861076073E-02  0.437254736269124E+01  0.116509397340906E+00
     0.105000000000000E+01  0.228454707338033E+00  0.616124801874947E-02  0.437405383676956E+01  0.117964872992632E+00
     0.106000000000000E+01  0.228371575905202E+00  0.623304130594172E-02  0.437556915645123E+01  0.119424246126349E+00
     0.107000000000000E+01  0.228287980524544E+00  0.630489044985273E-02  0.437709342890847E+01  0.120887199118532E+00
     0.108000000000000E+01  0.228203915719047E+00  0.637677770807867E-02  0.437862679211935E+01  0.122353420764078E+00
     0.109000000000000E+01  0.228119374482780E+00  0.644868580544479E-02  0.438016941418671E+01  0.123822609941627E+00
     0.110000000000000E+01  0.228034348339859E+00  0.652059811817456E-02  0.438172149208645E+01  0.125294479203113E+00
     0.111000000000000E+01  0.227948827432444E+00  0.659249884995718E-02  0.438328324984941E+01  0.126768758186452E+00
     0.112000000000000E+01  0.227862800636671E+00  0.666437319472546E-02  0.438485493620161E+01  0.128245196749674E+00
     0.113000000000000E+01  0.227776255704529E+00  0.673620748107336E-02  0.438643682170571E+01  0.129723567727618E+00
     0.114000000000000E+01  0.227689179428603E+00  0.680798929355834E-02  0.438802919546719E+01  0.131203669219290E+00
     0.115000000000000E+01  0.227601557825744E+00  0.687970756664300E-02  0.438963236148595E+01  0.132685326324599E+00
     0.116000000000000E+01  0.227513376334861E+00  0.695135264773186E-02  0.439124663475056E+01  0.134168392263623E+00
     0.117000000000000E+01  0.227424620023348E+00  0.702291632662971E-02  0.439287233718553E+01  0.135652748829274E+00
     0.118000000000000E+01  0.227335273796075E+00  0.709439182976833E-02  0.439450979357250E+01  0.137138306144798E+00
     0.119000000000000E+01  0.227245322600535E+00  0.716577377867946E-02  0.439615932757268E+01  0.138625001720248E+00
     0.120000000000000E+01  0.227154751621610E+00  0.723705811339804E-02  0.439782125797903E+01  0.140112798826013E+00
     0.121000000000000E+01  0.227063546459564E+00  0.730824198271240E-02  0.439949589532380E+01  0.141601684225883E+00
     0.122000000000000E+01  0.226971693285146E+00  0.737932360439312E-02  0.440118353895971E+01  0.143091665336038E+00
     0.123000000000000E+01  0.226879178966267E+00  0.745030209967815E-02  0.440288447472176E+01  0.144582766898751E+00
     0.124000000000000E+01  0.226785991161645E+00  0.752117730732698E-02  0.440459897325703E+01  0.146075027279459E+00
     0.125000000000000E+01  0.226692118377596E+00  0.759194958343345E-02  0.440632728909324E+01  0.147568494512816E+00
     0.126000000000000E+01  0.226597549985454E+00  0.766261959387677E-02  0.440806966049142E+01  0.149063222236178E+00
     0.127000000000000E+01  0.226502276198349E+00  0.773318810675673E-02  0.440982631010195E+01  0.150559265657358E+00
     0.128000000000000E+01  0.226406288007392E+00  0.780365579238786E-02  0.441159744641734E+01  0.152056677707177E+00
     0.129000000000000E+01  0.226309577078717E+00  0.787402303840393E-02  0.441338326598704E+01  0.153555505525959E+00
     0.130000000000000E+01  0.226212135614298E+00  0.794428978724492E-02  0.441518395633044E+01  0.155055787426404E+00
     0.131000000000000E+01  0.226113956180589E+00  0.801445540277240E-02  0.441699969946205E+01  0.156557550464179E+00
     0.132000000000000E+01  0.226015031510473E+00  0.808451857199539E-02  0.441883067591472E+01  0.158060808731122E+00
     0.133000000000000E+01  0.225915354284964E+00  0.815447724691097E-02  0.442067706912806E+01  0.159565562465823E+00
     0.134000000000000E+01  0.225814916901950E+00  0.822432863029951E-02  0.442253907005343E+01  0.161071798052436E+00
     0.135000000000000E+01  0.225713711240140E+00  0.829406920799144E-02  0.442441688180989E+01  0.162579488951361E+00
     0.136000000000000E+01  0.225611728426607E+00  0.836369482868535E-02  0.442631072422223E+01  0.164088597576500E+00
     0.137000000000000E+01  0.225508958616701E+00  0.843320083088028E-02  0.442822083806560E+01  0.165599078103013E+00
     0.138000000000000E+01  0.225405390794932E+00  0.850258221493745E-02  0.443014748884566E+01  0.167110880158488E+00
     0.139000000000000E+01  0.225301012605095E+00  0.857183385675270E-02  0.443209096995106E+01  0.168623953319841E+00
     0.140000000000000E+01  0.225195810217313E+00  0.864095075804812E-02  0.443405160502834E+01  0.170138252309050E+00
     0.141000000000000E+01  0.225089768238803E+00  0.870992832693124E-02  0.443602974944746E+01  0.171653742754006E+00
     0.142000000000000E+01  0.224982869674033E+00  0.877876268116423E-02  0.443802579075047E+01  0.173170407357380E+00
     0.143000000000000E+01  0.224875095938574E+00  0.884745096558379E-02  0.444004014800408E+01  0.174688252297266E+00
     0.144000000000000E+01  0.224766426929556E+00  0.891599167434957E-02  0.444207327000525E+01  0.176207313668915E+00
     0.145000000000000E+01  0.224656841153821E+00  0.898438496821203E-02  0.444412563232651E+01  0.177727663768680E+00
     0.146000000000000E+01  0.224546315913354E+00  0.905263297680082E-02  0.444619773321809E+01  0.179249417018440E+00
     0.147000000000000E+01  0.224434827545575E+00  0.912074007606059E-02  0.444829008842426E+01  0.180772735333136E+00
     0.148000000000000E+01  0.224322351714645E+00  0.918871313140078E-02  0.445040322500000E+01  0.182297832743861E+00
     0.149000000000000E+01  0.224208863748065E+00  0.925656169787595E-02  0.445253767425113E+01  0.183824979105798E+00
     0.150000000000000E+01  0.224094339011557E+00  0.932429816974415E-02  0.445469396394634E+01  0.185354502742049E+00
     0.151000000000000E+01  0.223978753313931E+00  0.939193787303554E-02  0.445687260997484E+01  0.186886791901408E+00
     0.152000000000000E+01  0.223862083332562E+00  0.945949909624985E-02  0.445907410764328E+01  0.188422294939070E+00
     0.153000000000000E+01  0.223744307049537E+00  0.952700305593934E-02  0.446129892281652E+01  0.189961519162683E+00
     0.154000000000000E+01  0.223625404188010E+00  0.959447379566087E-02  0.446354748311529E+01  0.191505028321526E+00
     0.155000000000000E+01  0.223505356638294E+00  0.966193801853128E-02  0.446582016938336E+01  0.193053438751884E+00
     0.156000000000000E+01  0.223384148863461E+00  0.972942485533588E-02  0.446811730762986E+01  0.194607414226073E+00
     0.157000000000000E+01  0.223261768274685E+00  0.979696557175313E-02  0.447043916164272E+01  0.196167659584897E+00
     0.158000000000000E+01  0.223138205567434E+00  0.986459321972619E-02  0.447278592645003E+01  0.197734913262138E+00
     0.159000000000000E+01  0.223013455010592E+00  0.993234223928140E-02  0.447515772278584E+01  0.199309938834682E+00
     0.160000000000000E+01  0.222887514681705E+00  0.100002480181417E-01  0.447755459269408E+01  0.200893515752346E+00
     0.161000000000000E+01  0.222760386643038E+00  0.100683464172845E-01  0.447997649637328E+01  0.202486429416458E+00
     0.162000000000000E+01  0.222632077054186E+00  0.101366732711464E-01  0.448242331034370E+01  0.204089460787207E+00
     0.163000000000000E+01  0.222502596218675E+00  0.102052638714864E-01  0.448489482698415E+01  0.205703375704684E+00
     0.164000000000000E+01  0.222371958563082E+00  0.102741524439990E-01  0.448739075546394E+01  0.207328914110138E+00
     0.165000000000000E+01  0.222240182548614E+00  0.103433716266501E-01  0.448991072406665E+01  0.208966779350734E+00
     0.166000000000000E+01  0.222107290516176E+00  0.104129519584178E-01  0.449245428388144E+01  0.210617627745268E+00
