#        \hbar \omega(eV)           Re(1/eps)            -Im(1/eps)               Re(eps)                Im(eps)
     0.000000000000000E+00  0.233316570267658E+00  -.728412374321930E-16  0.428602220087846E+01  -.133809253417230E-14
     0.100000000000000E-01  0.233316093662104E+00  0.500068357885431E-04  0.428603075924339E+01  0.918628599502139E-03
     0.200000000000000E-01  0.233314663855088E+00  0.100018281087449E-03  0.428605643428867E+01  0.183736414213386E-02
     0.300000000000000E-01  0.233312280875642E+00  0.150038948247256E-03  0.428609922586377E+01  0.275631363046315E-02
     0.400000000000000E-01  0.233308944772467E+00  0.200073455295700E-03  0.428615913371180E+01  0.367558418587534E-02
     0.500000000000000E-01  0.233304655614416E+00  0.250126428767311E-03  0.428623615745992E+01  0.459528310781178E-02
     0.600000000000000E-01  0.233299413491167E+00  0.300202506522271E-03  0.428633029660640E+01  0.551551793280573E-02
     0.700000000000000E-01  0.233293218514069E+00  0.350306340550505E-03  0.428644155050393E+01  0.643639649324017E-02
     0.800000000000000E-01  0.233286070817242E+00  0.400442599756876E-03  0.428656991833839E+01  0.735802697574594E-02
     0.900000000000000E-01  0.233277970558803E+00  0.450615972722962E-03  0.428671539910480E+01  0.828051797915994E-02
     0.100000000000000E+00  0.233268917922349E+00  0.500831170440542E-03  0.428687799157846E+01  0.920397857194476E-02
     0.110000000000000E+00  0.233258913118634E+00  0.551092929011422E-03  0.428705769428226E+01  0.101285183489704E-01
     0.120000000000000E+00  0.233247956387449E+00  0.601406012307696E-03  0.428725450545002E+01  0.110542474875447E-01
     0.130000000000000E+00  0.233236047999735E+00  0.651775214585946E-03  0.428746842298527E+01  0.119812768025673E-01
     0.140000000000000E+00  0.233223188259880E+00  0.702205363048114E-03  0.428769944441647E+01  0.129097178006704E-01
     0.150000000000000E+00  0.233209377508310E+00  0.752701320341068E-03  0.428794756684646E+01  0.138396827331851E-01
     0.160000000000000E+00  0.233194616124245E+00  0.803267986985948E-03  0.428821278689868E+01  0.147712846477735E-01
     0.170000000000000E+00  0.233178904528733E+00  0.853910303727457E-03  0.428849510065801E+01  0.157046374385267E-01
     0.180000000000000E+00  0.233162243187929E+00  0.904633253792125E-03  0.428879450360679E+01  0.166398558943203E-01
     0.190000000000000E+00  0.233144632616607E+00  0.955441865043509E-03  0.428911099055621E+01  0.175770557451973E-01
     0.200000000000000E+00  0.233126073381949E+00  0.100634121202089E-02  0.428944455557238E+01  0.185163537065148E-01
     0.210000000000000E+00  0.233106566107602E+00  0.105733641784673E-02  0.428979519189719E+01  0.194578675205699E-01
     0.220000000000000E+00  0.233086111477996E+00  0.110843265598669E-02  0.429016289186390E+01  0.204017159953916E-01
     0.230000000000000E+00  0.233064710242947E+00  0.115963515184422E-02  0.429054764680730E+01  0.213480190403508E-01
     0.240000000000000E+00  0.233042363222549E+00  0.121094918417020E-02  0.429094944696805E+01  0.222968976982068E-01
     0.250000000000000E+00  0.233019071312365E+00  0.126238008626614E-02  0.429136828139142E+01  0.232484741731748E-01
     0.260000000000000E+00  0.232994835488887E+00  0.131393324695755E-02  0.429180413782045E+01  0.242028718545620E-01
     0.270000000000000E+00  0.232969656815337E+00  0.136561411131190E-02  0.429225700258260E+01  0.251602153354687E-01
     0.280000000000000E+00  0.232943536447742E+00  0.141742818107347E-02  0.429272686047100E+01  0.261206304260245E-01
     0.290000000000000E+00  0.232916475641322E+00  0.146938101478513E-02  0.429321369461949E+01  0.270842441605717E-01
     0.300000000000000E+00  0.232888475757194E+00  0.152147822756454E-02  0.429371748637151E+01  0.280511847981623E-01
     0.310000000000000E+00  0.232859538269377E+00  0.157372549049994E-02  0.429423821514305E+01  0.290215818156947E-01
     0.320000000000000E+00  0.232829664772081E+00  0.162612852962805E-02  0.429477585827991E+01  0.299955658929601E-01
     0.330000000000000E+00  0.232798856987323E+00  0.167869312445406E-02  0.429533039090878E+01  0.309732688888151E-01
     0.340000000000000E+00  0.232767116772783E+00  0.173142510597121E-02  0.429590178578318E+01  0.319548238076610E-01
     0.350000000000000E+00  0.232734446129973E+00  0.178433035413460E-02  0.429649001312364E+01  0.329403647553370E-01
     0.360000000000000E+00  0.232700847212630E+00  0.183741479474191E-02  0.429709504045306E+01  0.339300268835118E-01
     0.370000000000000E+00  0.232666322335346E+00  0.189068439567083E-02  0.429771683242765E+01  0.349239463215962E-01
     0.380000000000000E+00  0.232630873982400E+00  0.194414516242121E-02  0.429835535066366E+01  0.359222600951597E-01
     0.390000000000000E+00  0.232594504816754E+00  0.199780313290813E-02  0.429901055356087E+01  0.369251060298067E-01
     0.400000000000000E+00  0.232557217689185E+00  0.205166437145029E-02  0.429968239612336E+01  0.379326226394244E-01
     0.410000000000000E+00  0.232519015647472E+00  0.210573496189762E-02  0.430037082977896E+01  0.389449489977173E-01
     0.420000000000000E+00  0.232479901945630E+00  0.216002099984113E-02  0.430107580219787E+01  0.399622245919077E-01
     0.430000000000000E+00  0.232439880053087E+00  0.221452858384894E-02  0.430179725711201E+01  0.409845891575138E-01
     0.440000000000000E+00  0.232398953663740E+00  0.226926380567326E-02  0.430253513413679E+01  0.420121824931328E-01
     0.450000000000000E+00  0.232357126704785E+00  0.232423273937576E-02  0.430328936859703E+01  0.430451442542085E-01
     0.460000000000000E+00  0.232314403345289E+00  0.237944142932243E-02  0.430405989135769E+01  0.440836137248017E-01
     0.470000000000000E+00  0.232270788004309E+00  0.243489587700422E-02  0.430484662866340E+01  0.451277295665505E-01
     0.480000000000000E+00  0.232226285358477E+00  0.249060202664648E-02  0.430564950198809E+01  0.461776295440771E-01
     0.490000000000000E+00  0.232180900348926E+00  0.254656574957942E-02  0.430646842789730E+01  0.472334502262993E-01
     0.500000000000000E+00  0.232134638187397E+00  0.260279282735289E-02  0.430730331792617E+01  0.482953266633183E-01
     0.510000000000000E+00  0.232087504361351E+00  0.265928893359216E-02  0.430815407847666E+01  0.493633920388295E-01
     0.520000000000000E+00  0.232039504637931E+00  0.271605961460808E-02  0.430902061073691E+01  0.504377772983022E-01
     0.530000000000000E+00  0.231990645066595E+00  0.277311026879420E-02  0.430990281062613E+01  0.515186107535562E-01
     0.540000000000000E+00  0.231940931980179E+00  0.283044612486599E-02  0.431080056876981E+01  0.526060176648222E-01
     0.550000000000000E+00  0.231890371994246E+00  0.288807221902342E-02  0.431171377050812E+01  0.537001198018441E-01
     0.560000000000000E+00  0.231838972004476E+00  0.294599337114706E-02  0.431264229594192E+01  0.548010349861628E-01
     0.570000000000000E+00  0.231786739181848E+00  0.300421416017161E-02  0.431358602002148E+01  0.559088766173975E-01
     0.580000000000000E+00  0.231733680965464E+00  0.306273889881634E-02  0.431454481268074E+01  0.570237531869737E-01
     0.590000000000000E+00  0.231679805052770E+00  0.312157160789190E-02  0.431551853902173E+01  0.581457677835710E-01
     0.600000000000000E+00  0.231625119386955E+00  0.318071599044554E-02  0.431650705955344E+01  0.592750175953753E-01
     0.610000000000000E+00  0.231569632141394E+00  0.324017540605120E-02  0.431751023048786E+01  0.604115934150613E-01
     0.620000000000000E+00  0.231513351700921E+00  0.329995284559731E-02  0.431852790409681E+01  0.615555791543530E-01
     0.630000000000000E+00  0.231456286639875E+00  0.336005090697212E-02  0.431955992913138E+01  0.627070513758855E-01
     0.640000000000000E+00  0.231398445696764E+00  0.342047177209183E-02  0.432060615130604E+01  0.638660788510010E-01
     0.650000000000000E+00  0.231339837745606E+00  0.348121718576048E-02  0.432166641384701E+01  0.650327221529049E-01
     0.660000000000000E+00  0.231280471763909E+00  0.354228843688932E-02  0.432274055810504E+01  0.662070332953959E-01
     0.670000000000000E+00  0.231220356797467E+00  0.360368634263587E-02  0.432382842422923E+01  0.673890554279533E-01
     0.680000000000000E+00  0.231159501922168E+00  0.366541123604573E-02  0.432492985189815E+01  0.685788225984097E-01
     0.690000000000001E+00  0.231097916203077E+00  0.372746295779167E-02  0.432604468110289E+01  0.697763595946610E-01
     0.700000000000001E+00  0.231035608651273E+00  0.378984085260035E-02  0.432717275297263E+01  0.709816818767015E-01
     0.710000000000001E+00  0.230972588178932E+00  0.385254377093584E-02  0.432831391063344E+01  0.721947956098924E-01
     0.720000000000001E+00  0.230908863553325E+00  0.391557007646613E-02  0.432946800008673E+01  0.734156978094623E-01
     0.730000000000001E+00  0.230844443350510E+00  0.397891765977283E-02  0.433063487109279E+01  0.746443766049654E-01
     0.740000000000001E+00  0.230779335909615E+00  0.404258395867231E-02  0.433181437804145E+01  0.758808116315707E-01
     0.750000000000001E+00  0.230713549288760E+00  0.410656598539619E-02  0.433300638078988E+01  0.771249745526897E-01
     0.760000000000001E+00  0.230647091223686E+00  0.417086036073107E-02  0.433421074544676E+01  0.783768297156056E-01
     0.770000000000001E+00  0.230579969090390E+00  0.423546335504077E-02  0.433542734507766E+01  0.796363349381827E-01
     0.780000000000001E+00  0.230512189872936E+00  0.430037093589004E-02  0.433665606030914E+01  0.809034424209180E-01
     0.790000000000001E+00  0.230443760137816E+00  0.436557882176225E-02  0.433789677980512E+01  0.821780997740292E-01
     0.800000000000001E+00  0.230374686016129E+00  0.443108254111642E-02  0.433914940059123E+01  0.834602511445614E-01
     0.810000000000001E+00  0.230304973194787E+00  0.449687749577006E-02  0.434041382820408E+01  0.847498384234715E-01
     0.820000000000001E+00  0.230234626917907E+00  0.456295902733042E-02  0.434168997664347E+01  0.860468025075095E-01
     0.830000000000001E+00  0.230163651999331E+00  0.462932248513829E-02  0.434297776810968E+01  0.873510845857813E-01
     0.840000000000001E+00  0.230092052847028E+00  0.469596329394550E-02  0.434427713251210E+01  0.886626274161955E-01
     0.850000000000001E+00  0.230019833499876E+00  0.476287701933292E-02  0.434558800674024E+01  0.899813765529179E-01
     0.860000000000001E+00  0.229946997676949E+00  0.483005942870086E-02  0.434691033369542E+01  0.913072814826643E-01
     0.870000000000001E+00  0.229873548839124E+00  0.489750654554163E-02  0.434824406108780E+01  0.926402966254010E-01
     0.880000000000001E+00  0.229799490262353E+00  0.496521469464511E-02  0.434958914001241E+01  0.939803821540350E-01
     0.890000000000001E+00  0.229724825121604E+00  0.503318053590188E-02  0.435094552332461E+01  0.953275045880420E-01
     0.900000000000001E+00  0.229649556583900E+00  0.510140108446296E-02  0.435231316384623E+01  0.966816371180579E-01
     0.910000000000001E+00  0.229573687908585E+00  0.516987371519352E-02  0.435369201244028E+01  0.980427596220240E-01
     0.920000000000001E+00  0.229497222552403E+00  0.523859614962323E-02  0.435508201600154E+01  0.994108583388612E-01
     0.930000000000001E+00  0.229420164276695E+00  0.530756642394230E-02  0.435648311541670E+01  0.100785925172516E+00
     0.940000000000001E+00  0.229342517253607E+00  0.537678283701755E-02  0.435789524355497E+01  0.102167956607698E+00
     0.950000000000001E+00  0.229264286167983E+00  0.544624387789396E-02  0.435931832335466E+01  0.103556952228336E+00
     0.960000000000001E+00  0.229185476311443E+00  0.551594813279307E-02  0.436075226607406E+01  0.104952912840505E+00
     0.970000000000001E+00  0.229106093665046E+00  0.558589417220413E-02  0.436219696977716E+01  0.106355838213143E+00
     0.980000000000002E+00  0.229026144966967E+00  0.565608041927008E-02  0.436365231812354E+01  0.107765724461724E+00
     0.990000000000002E+00  0.228945637761694E+00  0.572650500128097E-02  0.436511817953034E+01  0.109182561112092E+00
     0.100000000000000E+01  0.228864580427536E+00  0.579716558668313E-02  0.436659440676836E+01  0.110606327893256E+00
     0.101000000000000E+01  0.228782982179504E+00  0.586805921057586E-02  0.436808083704878E+01  0.112036991319017E+00
     0.102000000000000E+01  0.228700853045052E+00  0.593918209218533E-02  0.436957729264840E+01  0.113474501128357E+00
     0.103000000000000E+01  0.228618203810652E+00  0.601052944825953E-02  0.437108358211167E+01  0.114918786663400E+00
     0.104000000000000E+01  0.228535045937756E+00  0.608209530671075E-02  0.437259950205605E+01  0.116369753271121E+00
     0.105000000000000E+01  0.228451391447308E+00  0.615387232513253E-02  0.437412483959503E+01  0.117827278820786E+00
     0.106000000000000E+01  0.228367252772689E+00  0.622585161902779E-02  0.437565937537913E+01  0.119291210433023E+00
     0.107000000000000E+01  0.228282642581575E+00  0.629802260470077E-02  0.437720288724233E+01  0.120761361518594E+00
     0.108000000000000E+01  0.228197573568099E+00  0.637037286178454E-02  0.437875515442478E+01  0.122237509224972E+00
     0.109000000000000E+01  0.228112058217262E+00  0.644288802028975E-02  0.438031596232951E+01  0.123719392386952E+00
     0.110000000000000E+01  0.228026108544462E+00  0.651555167687762E-02  0.438188510775465E+01  0.125206710073504E+00
     0.111000000000000E+01  0.227939735813570E+00  0.658834534476681E-02  0.438346240452953E+01  0.126699120817017E+00
     0.112000000000000E+01  0.227852950237903E+00  0.666124844128951E-02  0.438504768946625E+01  0.128196242602692E+00
     0.113000000000000E+01  0.227765760668870E+00  0.673423831660814E-02  0.438664082852876E+01  0.129697653685634E+00
     0.114000000000000E+01  0.227678174277982E+00  0.680729032649412E-02  0.438824172310445E+01  0.131202894290318E+00
     0.115000000000000E+01  0.227590196238213E+00  0.688037795135261E-02  0.438985031625651E+01  0.132711469232602E+00
     0.116000000000000E+01  0.227501829411396E+00  0.695347296285595E-02  0.439146659882261E+01  0.134222851487401E+00
     0.117000000000000E+01  0.227413074048568E+00  0.702654563862717E-02  0.439309061522103E+01  0.135736486706489E+00
     0.118000000000000E+01  0.227323927510570E+00  0.709956502440273E-02  0.439472246881786E+01  0.137251798670095E+00
     0.119000000000000E+01  0.227234384016229E+00  0.717249924201482E-02  0.439636232670954E+01  0.138768195634049E+00
     0.120000000000000E+01  0.227144434425432E+00  0.724531584038234E-02  0.439801042377595E+01  0.140285077510941E+00
     0.121000000000000E+01  0.227054066064235E+00  0.731798218551574E-02  0.439966706586345E+01  0.141801843799971E+00
     0.122000000000000E+01  0.226963262598653E+00  0.739046588434886E-02  0.440133263196853E+01  0.143317902156504E+00
     0.123000000000000E+01  0.226872003963163E+00  0.746273523604791E-02  0.440300757530538E+01  0.144832677469330E+00
     0.124000000000000E+01  0.226780266349132E+00  0.753475970335526E-02  0.440469242315866E+01  0.146345621292270E+00
     0.125000000000000E+01  0.226688022257289E+00  0.760651039554336E-02  0.440638777544550E+01  0.147856221457875E+00
     0.126000000000000E+01  0.226595240617139E+00  0.767796055372928E-02  0.440809430193559E+01  0.149364011685338E+00
     0.127000000000000E+01  0.226501886974714E+00  0.774908602867525E-02  0.440981273810952E+01  0.150868580983493E+00
     0.128000000000000E+01  0.226407923748624E+00  0.781986574081525E-02  0.441154387966432E+01  0.152369582643196E+00
     0.129000000000000E+01  0.226313310552523E+00  0.789028211213525E-02  0.441328857571243E+01  0.153866742612796E+00
     0.130000000000000E+01  0.226218004580581E+00  0.796032145971929E-02  0.441504772075084E+01  0.155359867055403E+00
     0.131000000000000E+01  0.226121961050735E+00  0.802997434126884E-02  0.441682224551290E+01  0.156848848898211E+00
     0.132000000000000E+01  0.226025133698938E+00  0.809923584370615E-02  0.441861310684597E+01  0.158333673201605E+00
     0.133000000000000E+01  0.225927475316152E+00  0.816810580707079E-02  0.442042127678639E+01  0.159814421199071E+00
     0.134000000000000E+01  0.225828938318611E+00  0.823658897728027E-02  0.442224773102652E+01  0.161291272887209E+00
     0.135000000000000E+01  0.225729475340727E+00  0.830469508290981E-02  0.442409343698995E+01  0.162764508077847E+00
     0.136000000000000E+01  0.225629039839565E+00  0.837243883289535E-02  0.442595934173864E+01  0.164234505859430E+00
     0.137000000000000E+01  0.225527586699163E+00  0.843983983391697E-02  0.442784635994692E+01  0.165701742452437E+00
     0.138000000000000E+01  0.225425072823116E+00  0.850692242810397E-02  0.442975536217258E+01  0.167166787480862E+00
     0.139000000000000E+01  0.225321457704122E+00  0.857371545355165E-02  0.443168716364858E+01  0.168630298718262E+00
     0.140000000000000E+01  0.225216703959721E+00  0.864025193188036E-02  0.443364251380601E+01  0.170093015400982E+00
     0.141000000000000E+01  0.225110777824542E+00  0.870656868864227E-02  0.443562208671743E+01  0.171555750231403E+00
     0.142000000000000E+01  0.225003649590402E+00  0.877270591373564E-02  0.443762647262655E+01  0.173019380219962E+00
     0.143000000000000E+01  0.224895293986966E+00  0.883870667008181E-02  0.443965617070383E+01  0.174484836535281E+00
     0.144000000000000E+01  0.224785690497329E+00  0.890461635963352E-02  0.444171158313364E+01  0.175953093546297E+00
     0.145000000000000E+01  0.224674823604141E+00  0.897048215629985E-02  0.444379301061311E+01  0.177425157249618E+00
     0.146000000000000E+01  0.224562682963721E+00  0.903635241560328E-02  0.444590064930776E+01  0.178902053278348E+00
     0.147000000000000E+01  0.224449263506984E+00  0.910227607084123E-02  0.444803458928110E+01  0.180384814686762E+00
     0.148000000000000E+01  0.224334565467340E+00  0.916830202523971E-02  0.445019481438969E+01  0.181874469698787E+00
     0.149000000000000E+01  0.224218594337165E+00  0.923447854909784E-02  0.445238120360789E+01  0.183372029597585E+00
     0.150000000000000E+01  0.224101360755324E+00  0.930085269027351E-02  0.445459353372911E+01  0.184878476920516E+00
     0.151000000000000E+01  0.223982880329266E+00  0.936746970559647E-02  0.445683148337108E+01  0.186394754108233E+00
     0.152000000000000E+01  0.223863173395863E+00  0.943437251996618E-02  0.445909463820050E+01  0.187921752740349E+00
     0.153000000000000E+01  0.223742264725676E+00  0.950160121903904E-02  0.446138249728284E+01  0.189460303473532E+00
     0.154000000000000E+01  0.223620183175730E+00  0.956919258057172E-02  0.446369448045582E+01  0.191011166781624E+00
     0.155000000000000E+01  0.223496961295998E+00  0.963717964870030E-02  0.446602993662319E+01  0.192575024582591E+00
     0.156000000000000E+01  0.223372634894980E+00  0.970559135471821E-02  0.446838815286186E+01  0.194152472823411E+00
     0.157000000000000E+01  0.223247242569637E+00  0.977445218729128E-02  0.447076836423767E+01  0.195744015082580E+00
     0.158000000000000E+01  0.223120825205011E+00  0.984378191451942E-02  0.447316976422377E+01  0.197350057239982E+00
     0.159000000000000E+01  0.222993425448571E+00  0.991359535982407E-02  0.447559151562033E+01  0.198970903256314E+00
     0.160000000000000E+01  0.222865087164483E+00  0.998390223329688E-02  0.447803276187068E+01  0.200606752097609E+00
     0.161000000000000E+01  0.222735854872694E+00  0.100547070198803E-01  0.448049263867395E+01  0.202257695835929E+00
     0.162000000000000E+01  0.222605773177931E+00  0.101260089255343E-01  0.448297028578902E+01  0.203923718952788E+00
     0.163000000000000E+01  0.222474886193550E+00  0.101978018823623E-01  0.448546485892656E+01  0.205604698868510E+00
     0.164000000000000E+01  0.222343236965516E+00  0.102700746134869E-01  0.448797554161772E+01  0.207300407716322E+00
     0.165000000000000E+01  0.222210866901796E+00  0.103428107582589E-01  0.449050155694668E+01  0.209010515375434E+00
     0.166000000000000E+01  0.222077815212857E+00  0.104159890581192E-01  0.449304217902513E+01  0.210734593770825E+00
