#        \hbar \omega(eV)           Re(1/eps)            -Im(1/eps)               Re(eps)                Im(eps)
     0.000000000000000E+00  0.233416711656137E+00  0.979771582269482E-17  0.428418339417433E+01  0.179829503768629E-15
     0.100000000000000E-01  0.233416234407658E+00  0.482568267887496E-04  0.428419197060416E+01  0.885720354369721E-03
     0.200000000000000E-01  0.233414802649378E+00  0.965169009455423E-04  0.428421770028161E+01  0.177152181744168E-02
     0.300000000000000E-01  0.233412416342799E+00  0.144783471737596E-03  0.428426058437001E+01  0.265748553976945E-02
     0.400000000000000E-01  0.233409075423796E+00  0.193059792232467E-03  0.428432062480747E+01  0.354369275565141E-02
     0.500000000000000E-01  0.233404779802683E+00  0.241349121203322E-03  0.428439782430554E+01  0.443022482511166E-02
     0.600000000000000E-01  0.233399529364298E+00  0.289654725040330E-03  0.428449218634755E+01  0.531716327601034E-02
     0.700000000000000E-01  0.233393323968127E+00  0.337979879670207E-03  0.428460371518611E+01  0.620458984632690E-02
     0.800000000000000E-01  0.233386163448429E+00  0.386327872485985E-03  0.428473241584051E+01  0.709258652666086E-02
     0.900000000000000E-01  0.233378047614425E+00  0.434702004289073E-03  0.428487829409314E+01  0.798123560299207E-02
     0.100000000000000E+00  0.233368976250479E+00  0.483105591245667E-03  0.428504135648566E+01  0.887061969974634E-02
     0.110000000000000E+00  0.233358949116325E+00  0.531541966859609E-03  0.428522161031456E+01  0.976082182320970E-02
     0.120000000000000E+00  0.233347965947327E+00  0.580014483963806E-03  0.428541906362581E+01  0.106519254053350E-01
     0.130000000000000E+00  0.233336026454760E+00  0.628526516732299E-03  0.428563372520940E+01  0.115440143479883E-01
     0.140000000000000E+00  0.233323130326125E+00  0.677081462715145E-03  0.428586560459282E+01  0.124371730676773E-01
     0.150000000000000E+00  0.233309277225502E+00  0.725682744898250E-03  0.428611471203405E+01  0.133314865408090E-01
     0.160000000000000E+00  0.233294466793935E+00  0.774333813790319E-03  0.428638105851375E+01  0.142270403495220E-01
     0.170000000000000E+00  0.233278698649853E+00  0.823038149539149E-03  0.428666465572680E+01  0.151239207281409E-01
     0.180000000000000E+00  0.233261972389522E+00  0.871799264079434E-03  0.428696551607318E+01  0.160222146102988E-01
     0.190000000000000E+00  0.233244287587554E+00  0.920620703314361E-03  0.428728365264758E+01  0.169220096767729E-01
     0.200000000000000E+00  0.233225643797441E+00  0.969506049333234E-03  0.428761907922871E+01  0.178233944040867E-01
     0.210000000000000E+00  0.233206040552139E+00  0.101845892266743E-02  0.428797181026738E+01  0.187264581139219E-01
     0.220000000000000E+00  0.233185477364709E+00  0.106748298458696E-02  0.428834186087358E+01  0.196312910233891E-01
     0.230000000000000E+00  0.233163953728980E+00  0.111658193944005E-02  0.428872924680285E+01  0.205379842962115E-01
     0.240000000000000E+00  0.233141469120302E+00  0.116575953703797E-02  0.428913398444118E+01  0.214466300948628E-01
     0.250000000000000E+00  0.233118022996321E+00  0.121501957508766E-02  0.428955609078904E+01  0.223573216337178E-01
     0.260000000000000E+00  0.233093614797825E+00  0.126436590167433E-02  0.428999558344425E+01  0.232701532332622E-01
     0.270000000000000E+00  0.233068243949663E+00  0.131380241779674E-02  0.429045248058318E+01  0.241852203754091E-01
     0.280000000000000E+00  0.233041909861702E+00  0.136333307995731E-02  0.429092680094115E+01  0.251026197599828E-01
     0.290000000000000E+00  0.233014611929885E+00  0.141296190280975E-02  0.429141856379087E+01  0.260224493624101E-01
     0.300000000000000E+00  0.232986349537333E+00  0.146269296186654E-02  0.429192778891979E+01  0.269448084926815E-01
     0.310000000000000E+00  0.232957122055558E+00  0.151253039626875E-02  0.429245449660529E+01  0.278697978556226E-01
     0.320000000000000E+00  0.232926928845722E+00  0.156247841162081E-02  0.429299870758873E+01  0.287975196125402E-01
     0.330000000000000E+00  0.232895769260013E+00  0.161254128289250E-02  0.429356044304729E+01  0.297280774442849E-01
     0.340000000000000E+00  0.232863642643105E+00  0.166272335739086E-02  0.429413972456381E+01  0.306615766157844E-01
     0.350000000000000E+00  0.232830548333707E+00  0.171302905780427E-02  0.429473657409491E+01  0.315981240421031E-01
     0.360000000000000E+00  0.232796485666244E+00  0.176346288532136E-02  0.429535101393638E+01  0.325378283560688E-01
     0.370000000000000E+00  0.232761453972621E+00  0.181402942282693E-02  0.429598306668664E+01  0.334807999775277E-01
     0.380000000000000E+00  0.232725452584127E+00  0.186473333817747E-02  0.429663275520749E+01  0.344271511842671E-01
     0.390000000000000E+00  0.232688480833455E+00  0.191557938755841E-02  0.429730010258226E+01  0.353769961846589E-01
     0.400000000000000E+00  0.232650538056863E+00  0.196657241892540E-02  0.429798513207101E+01  0.363304511920640E-01
     0.410000000000000E+00  0.232611623596480E+00  0.201771737553197E-02  0.429868786706284E+01  0.372876345010490E-01
     0.420000000000000E+00  0.232571736802753E+00  0.206901929954517E-02  0.429940833102494E+01  0.382486665654491E-01
     0.430000000000000E+00  0.232530877037076E+00  0.212048333575176E-02  0.430014654744811E+01  0.392136700783195E-01
     0.440000000000000E+00  0.232489043674578E+00  0.217211473535611E-02  0.430090253978879E+01  0.401827700538101E-01
     0.450000000000000E+00  0.232446236107090E+00  0.222391885987191E-02  0.430167633140718E+01  0.411560939109964E-01
     0.460000000000000E+00  0.232402453746324E+00  0.227590118510883E-02  0.430246794550116E+01  0.421337715596893E-01
     0.470000000000000E+00  0.232357696027251E+00  0.232806730525554E-02  0.430327740503584E+01  0.431159354882478E-01
     0.480000000000000E+00  0.232311962411696E+00  0.238042293705979E-02  0.430410473266852E+01  0.441027208534134E-01
     0.490000000000000E+00  0.232265252392172E+00  0.243297392410641E-02  0.430494995066871E+01  0.450942655721720E-01
     0.500000000000000E+00  0.232217565495967E+00  0.248572624119338E-02  0.430581308083263E+01  0.460907104156392E-01
     0.510000000000000E+00  0.232168901289489E+00  0.253868599880582E-02  0.430669414439248E+01  0.470921991049762E-01
     0.520000000000000E+00  0.232119259382905E+00  0.259185944768752E-02  0.430759316191930E+01  0.480988784092982E-01
     0.530000000000000E+00  0.232068639435052E+00  0.264525298350873E-02  0.430851015322009E+01  0.491108982455717E-01
     0.540000000000000E+00  0.232017041158717E+00  0.269887315162865E-02  0.430944513722735E+01  0.501284117804230E-01
     0.550000000000000E+00  0.231964464326203E+00  0.275272665195041E-02  0.431039813188228E+01  0.511515755338449E-01
     0.560000000000000E+00  0.231910908775273E+00  0.280682034386526E-02  0.431136915401006E+01  0.521805494846944E-01
     0.570000000000000E+00  0.231856374415500E+00  0.286116125128243E-02  0.431235821918669E+01  0.532154971779004E-01
     0.580000000000000E+00  0.231800861234987E+00  0.291575656773959E-02  0.431336534159780E+01  0.542565858332791E-01
     0.590000000000000E+00  0.231744369307538E+00  0.297061366158836E-02  0.431439053388804E+01  0.553039864558143E-01
     0.600000000000000E+00  0.231686898800274E+00  0.302574008124766E-02  0.431543380700093E+01  0.563578739472448E-01
     0.610000000000000E+00  0.231628449981753E+00  0.308114356051689E-02  0.431649517000819E+01  0.574184272187665E-01
     0.620000000000000E+00  0.231569023230582E+00  0.313683202393904E-02  0.431757462992853E+01  0.584858293046423E-01
     0.630000000000000E+00  0.231508619044590E+00  0.319281359220269E-02  0.431867219153459E+01  0.595602674764503E-01
     0.640000000000000E+00  0.231447238050571E+00  0.324909658756955E-02  0.431978785714785E+01  0.606419333576870E-01
     0.650000000000000E+00  0.231384881014649E+00  0.330568953931286E-02  0.432092162642033E+01  0.617310230383813E-01
     0.660000000000000E+00  0.231321548853282E+00  0.336260118914916E-02  0.432207349610278E+01  0.628277371893408E-01
     0.670000000000000E+00  0.231257242644966E+00  0.341984049664399E-02  0.432324345979810E+01  0.639322811755864E-01
     0.680000000000000E+00  0.231191963642656E+00  0.347741664456910E-02  0.432443150769950E+01  0.650448651684826E-01
     0.690000000000001E+00  0.231125713286953E+00  0.353533904418608E-02  0.432563762631250E+01  0.661657042560060E-01
     0.700000000000001E+00  0.231058493220135E+00  0.359361734042762E-02  0.432686179815914E+01  0.672950185504956E-01
     0.710000000000001E+00  0.230990305301006E+00  0.365226141694470E-02  0.432810400146479E+01  0.684330332932158E-01
     0.720000000000001E+00  0.230921151620691E+00  0.371128140098309E-02  0.432936420982514E+01  0.695799789548868E-01
     0.730000000000001E+00  0.230851034519368E+00  0.377068766804929E-02  0.433064239185315E+01  0.707360913313218E-01
     0.740000000000001E+00  0.230779956604013E+00  0.383049084632012E-02  0.433193851080488E+01  0.719016116331618E-01
     0.750000000000001E+00  0.230707920767225E+00  0.389070182074595E-02  0.433325252418236E+01  0.730767865685838E-01
     0.760000000000001E+00  0.230634930207154E+00  0.395133173679082E-02  0.433458438331333E+01  0.742618684177640E-01
     0.770000000000001E+00  0.230560988448621E+00  0.401239200374728E-02  0.433593403290570E+01  0.754571150976976E-01
     0.780000000000001E+00  0.230486099365463E+00  0.407389429755600E-02  0.433730141057653E+01  0.766627902158728E-01
     0.790000000000001E+00  0.230410267204197E+00  0.413585056305338E-02  0.433868644635289E+01  0.778791631110692E-01
     0.800000000000001E+00  0.230333496609019E+00  0.419827301556163E-02  0.434008906214499E+01  0.791065088794558E-01
     0.810000000000001E+00  0.230255792648258E+00  0.426117414172702E-02  0.434150917118872E+01  0.803451083838783E-01
     0.820000000000001E+00  0.230177160842272E+00  0.432456669950227E-02  0.434294667745777E+01  0.815952482441026E-01
     0.830000000000001E+00  0.230097607192944E+00  0.438846371715809E-02  0.434440147504257E+01  0.828572208054542E-01
     0.840000000000001E+00  0.230017138214752E+00  0.445287849119797E-02  0.434587344749621E+01  0.841313240831512E-01
     0.850000000000001E+00  0.229935760967524E+00  0.451782458303717E-02  0.434736246714517E+01  0.854178616792697E-01
     0.860000000000001E+00  0.229853483090934E+00  0.458331581429392E-02  0.434886839436397E+01  0.867171426690361E-01
     0.870000000000001E+00  0.229770312840771E+00  0.464936626052607E-02  0.435039107681291E+01  0.880294814528298E-01
     0.880000000000001E+00  0.229686259127060E+00  0.471599024323086E-02  0.435193034863754E+01  0.893551975699229E-01
     0.890000000000001E+00  0.229601331554065E+00  0.478320231990896E-02  0.435348602962920E+01  0.906946154696418E-01
     0.900000000000001E+00  0.229515540462229E+00  0.485101727197580E-02  0.435505792434581E+01  0.920480642352551E-01
     0.910000000000001E+00  0.229428896972058E+00  0.491945009028415E-02  0.435664582119285E+01  0.934158772554854E-01
     0.920000000000001E+00  0.229341413030004E+00  0.498851595800208E-02  0.435824949146345E+01  0.947983918380917E-01
     0.930000000000001E+00  0.229253101456333E+00  0.505823023056858E-02  0.435986868833837E+01  0.961959487595552E-01
     0.940000000000001E+00  0.229163975994983E+00  0.512860841242665E-02  0.436150314584589E+01  0.976088917443998E-01
     0.950000000000001E+00  0.229074051365385E+00  0.519966613021053E-02  0.436315257778243E+01  0.990375668671841E-01
     0.960000000000001E+00  0.228983343316204E+00  0.527141910203848E-02  0.436481667659515E+01  0.100482321869704E+00
     0.970000000000001E+00  0.228891868680938E+00  0.534388310253768E-02  0.436649511222848E+01  0.101943505385407E+00
     0.980000000000002E+00  0.228799645435275E+00  0.541707392320144E-02  0.436818753093665E+01  0.103421466062475E+00
     0.990000000000002E+00  0.228706692756088E+00  0.549100732765232E-02  0.436989355406565E+01  0.104916551576501E+00
     0.100000000000000E+01  0.228613031081876E+00  0.556569900135862E-02  0.437161277680891E+01  0.106429107523175E+00
     0.101000000000000E+01  0.228518682174491E+00  0.564116449532457E-02  0.437334476694088E+01  0.107959476180781E+00
     0.102000000000000E+01  0.228423669181849E+00  0.571741916324928E-02  0.437508906353525E+01  0.109507995131909E+00
     0.103000000000000E+01  0.228328016701344E+00  0.579447809162548E-02  0.437684517567490E+01  0.111074995733257E+00
     0.104000000000000E+01  0.228231750843568E+00  0.587235602222552E-02  0.437861258116210E+01  0.112660801421987E+00
     0.105000000000000E+01  0.228134899295924E+00  0.595106726640366E-02  0.438039072523918E+01  0.114265725846772E+00
     0.106000000000000E+01  0.228037491385590E+00  0.603062561062683E-02  0.438217901933162E+01  0.115890070811412E+00
     0.107000000000000E+01  0.227939558141229E+00  0.611104421263524E-02  0.438397683982736E+01  0.117534124018766E+00
     0.108000000000000E+01  0.227841132352753E+00  0.619233548762936E-02  0.438578352690817E+01  0.119198156602760E+00
     0.109000000000000E+01  0.227742248628344E+00  0.627451098388206E-02  0.438759838345098E+01  0.120882420436416E+00
     0.110000000000000E+01  0.227642943447780E+00  0.635758124718721E-02  0.438942067402023E+01  0.122587145204298E+00
     0.111000000000000E+01  0.227543255211066E+00  0.644155567357866E-02  0.439124962397396E+01  0.124312535228397E+00
     0.112000000000000E+01  0.227443224281159E+00  0.652644234979109E-02  0.439308441871021E+01  0.126058766037519E+00
     0.113000000000000E+01  0.227342893019494E+00  0.661224788098572E-02  0.439492420308249E+01  0.127825980671554E+00
     0.114000000000000E+01  0.227242305812809E+00  0.669897720533587E-02  0.439676808101725E+01  0.129614285713794E+00
     0.115000000000000E+01  0.227141509089694E+00  0.678663339515885E-02  0.439861511536778E+01  0.131423747046682E+00
     0.116000000000000E+01  0.227040551325004E+00  0.687521744439805E-02  0.440046432804540E+01  0.133254385329257E+00
     0.117000000000000E+01  0.226939483030250E+00  0.696472804240243E-02  0.440231470046836E+01  0.135106171197832E+00
     0.118000000000000E+01  0.226838356727757E+00  0.705516133412694E-02  0.440416517437628E+01  0.136979020195688E+00
     0.119000000000000E+01  0.226737226906389E+00  0.714651066708514E-02  0.440601465305751E+01  0.138872787442218E+00
     0.120000000000000E+01  0.226636149956296E+00  0.723876632563373E-02  0.440786200304312E+01  0.140787262057805E+00
     0.121000000000000E+01  0.226535184080136E+00  0.733191525345419E-02  0.440970605632144E+01  0.142722161367019E+00
     0.122000000000000E+01  0.226434389178045E+00  0.742594076542896E-02  0.441154561313056E+01  0.144677124910282E+00
     0.123000000000000E+01  0.226333826703479E+00  0.752082225048317E-02  0.441337944538793E+01  0.146651708302462E+00
     0.124000000000000E+01  0.226233559487067E+00  0.761653486738697E-02  0.441520630081592E+01  0.148645376986139E+00
     0.125000000000000E+01  0.226133651525535E+00  0.771304923598084E-02  0.441702490782280E+01  0.150657499937571E+00
     0.126000000000000E+01  0.226034167732816E+00  0.781033112680115E-02  0.441883398119641E+01  0.152687343394475E+00
     0.127000000000000E+01  0.225935173650523E+00  0.790834115263953E-02  0.442063222866499E+01  0.154734064686678E+00
     0.128000000000000E+01  0.225836735115182E+00  0.800703446616365E-02  0.442241835837463E+01  0.156796706263223E+00
     0.129000000000000E+01  0.225738917879889E+00  0.810636046835024E-02  0.442419108732484E+01  0.158874190022476E+00
     0.130000000000000E+01  0.225641787188353E+00  0.820626253312365E-02  0.442594915079638E+01  0.160965312065059E+00
     0.131000000000000E+01  0.225545407299899E+00  0.830667775424089E-02  0.442769131279080E+01  0.163068738002281E+00
     0.132000000000000E+01  0.225449840964510E+00  0.840753672109939E-02  0.442941637748903E+01  0.165182998965346E+00
     0.133000000000000E+01  0.225355148847850E+00  0.850876333074504E-02  0.443112320171610E+01  0.167306488471808E+00
     0.134000000000000E+01  0.225261388907009E+00  0.861027464390197E-02  0.443281070838078E+01  0.169437460315688E+00
     0.135000000000000E+01  0.225168615718886E+00  0.871198079330032E-02  0.443447790083249E+01  0.171574027654899E+00
     0.136000000000000E+01  0.225076879764262E+00  0.881378495291360E-02  0.443612387805281E+01  0.173714163474248E+00
     0.137000000000000E+01  0.224986226671969E+00  0.891558337689914E-02  0.443774785056892E+01  0.175855702603023E+00
     0.138000000000000E+01  0.224896696429110E+00  0.901726551702177E-02  0.443934915694333E+01  0.177996345462295E+00
     0.139000000000000E+01  0.224808322564764E+00  0.911871422709995E-02  0.444092728066306E+01  0.180133663708257E+00
     0.140000000000000E+01  0.224721131316410E+00  0.921980606250569E-02  0.444248186721410E+01  0.182265107922769E+00
     0.141000000000000E+01  0.224635140789865E+00  0.932041168193993E-02  0.444401274109514E+01  0.184388017480931E+00
     0.142000000000000E+01  0.224550360125307E+00  0.942039635756984E-02  0.444551992249043E+01  0.186499632696929E+00
     0.143000000000000E+01  0.224466788683535E+00  0.951962059812806E-02  0.444700364329065E+01  0.188597109313595E+00
     0.144000000000000E+01  0.224384415267982E+00  0.961794088773330E-02  0.444846436212692E+01  0.190677535358357E+00
     0.145000000000000E+01  0.224303217399384E+00  0.971521054099627E-02  0.444990277805959E+01  0.192737950338165E+00
     0.146000000000000E+01  0.224223160660765E+00  0.981128067245050E-02  0.445131984255350E+01  0.194775366690220E+00
     0.147000000000000E+01  0.224144198131003E+00  0.990600127553020E-02  0.445271676936650E+01  0.196786793344254E+00
     0.148000000000000E+01  0.224066269925304E+00  0.999922240326836E-02  0.445409504198537E+01  0.198769261187567E+00
     0.149000000000000E+01  0.223989302860445E+00  0.100907954396874E-01  0.445545641826099E+01  0.200719850157870E+00
     0.150000000000000E+01  0.223913210261487E+00  0.101805744476004E-01  0.445680293192881E+01  0.202635717623799E+00
     0.151000000000000E+01  0.223837891925126E+00  0.102684175753483E-01  0.445813689074156E+01  0.204514127650523E+00
     0.152000000000000E+01  0.223763234252351E+00  0.103541885020017E-01  0.445946087100130E+01  0.206352480692047E+00
     0.153000000000000E+01  0.223689110560222E+00  0.104377578978857E-01  0.446077770834601E+01  0.208148343204512E+00
     0.154000000000000E+01  0.223615381578990E+00  0.105190048750871E-01  0.446209048472587E+01  0.209899476639227E+00
     0.155000000000000E+01  0.223541896136755E+00  0.105978184010049E-01  0.446340251159321E+01  0.211603865252694E+00
     0.156000000000000E+01  0.223468492029427E+00  0.106740986471276E-01  0.446471730942401E+01  0.213259742165595E+00
     0.157000000000000E+01  0.223394997069120E+00  0.107477582451517E-01  0.446603858378418E+01  0.214865613114785E+00
     0.158000000000000E+01  0.223321230299295E+00  0.108187234233695E-01  0.446737019825132E+01  0.216420277373140E+00
     0.159000000000000E+01  0.223247003360404E+00  0.108869349979659E-01  0.446871614459005E+01  0.217922845360537E+00
     0.160000000000000E+01  0.223172121985411E+00  0.109523491964624E-01  0.447008051066189E+01  0.219372752535240E+00
     0.161000000000000E+01  0.223096387600692E+00  0.110149382939720E-01  0.447146744661856E+01  0.220769769236080E+00
     0.162000000000000E+01  0.223019599004655E+00  0.110746910470751E-01  0.447288112998018E+01  0.222114006239375E+00
     0.163000000000000E+01  0.222941554093942E+00  0.111316129148558E-01  0.447432573023607E+01  0.223405915897491E+00
     0.164000000000000E+01  0.222862051605701E+00  0.111857260617686E-01  0.447580537361793E+01  0.224646288833685E+00
     0.165000000000000E+01  0.222780892843791E+00  0.112370691423535E-01  0.447732410869335E+01  0.225836246277149E+00
     0.166000000000000E+01  0.222697883357376E+00  0.112856968731541E-01  0.447888587339858E+01  0.226977228227680E+00
