#       Energy(Ry)            Total                 X                  Y                   Z
      0.00000000E+00      0.00000000E+00      0.00000000E+00      0.00000000E+00      0.00000000E+00
      0.10000000E-02      0.18705160E-05      0.91524957E-06      0.38042019E-06      0.57484620E-06
      0.20000000E-02      0.37572226E-05      0.18382732E-05      0.76407170E-06      0.11548778E-05
      0.30000000E-02      0.56602781E-05      0.27691452E-05      0.11509855E-05      0.17401474E-05
      0.40000000E-02      0.75798425E-05      0.37079411E-05      0.15411928E-05      0.23307086E-05
      0.50000000E-02      0.95160774E-05      0.46547368E-05      0.19347254E-05      0.29266152E-05
      0.60000000E-02      0.11469147E-04      0.56096094E-05      0.23316152E-05      0.35279220E-05
      0.70000000E-02      0.13439216E-04      0.65726369E-05      0.27318946E-05      0.41346844E-05
      0.80000000E-02      0.15426453E-04      0.75438980E-05      0.31355964E-05      0.47469583E-05
      0.90000000E-02      0.17431026E-04      0.85234724E-05      0.35427537E-05      0.53648004E-05
      0.10000000E-01      0.19453109E-04      0.95114407E-05      0.39533999E-05      0.59882682E-05
      0.11000000E-01      0.21492873E-04      0.10507884E-04      0.43675691E-05      0.66174197E-05
      0.12000000E-01      0.23550495E-04      0.11512886E-04      0.47852954E-05      0.72523137E-05
      0.13000000E-01      0.25626153E-04      0.12526529E-04      0.52066136E-05      0.78930098E-05
      0.14000000E-01      0.27720025E-04      0.13548898E-04      0.56315587E-05      0.85395682E-05
      0.15000000E-01      0.29832294E-04      0.14580078E-04      0.60601662E-05      0.91920500E-05
      0.16000000E-01      0.31963145E-04      0.15620156E-04      0.64924722E-05      0.98505170E-05
      0.17000000E-01      0.34112763E-04      0.16669218E-04      0.69285127E-05      0.10515032E-04
      0.18000000E-01      0.36281336E-04      0.17727354E-04      0.73683247E-05      0.11185657E-04
      0.19000000E-01      0.38469056E-04      0.18794653E-04      0.78119453E-05      0.11862458E-04
      0.20000000E-01      0.40676116E-04      0.19871205E-04      0.82594121E-05      0.12545498E-04
      0.21000000E-01      0.42902710E-04      0.20957102E-04      0.87107632E-05      0.13234845E-04
      0.22000000E-01      0.45149037E-04      0.22052436E-04      0.91660371E-05      0.13930564E-04
      0.23000000E-01      0.47415297E-04      0.23157302E-04      0.96252728E-05      0.14632722E-04
      0.24000000E-01      0.49701691E-04      0.24271794E-04      0.10088510E-04      0.15341388E-04
      0.25000000E-01      0.52008426E-04      0.25396008E-04      0.10555787E-04      0.16056631E-04
      0.26000000E-01      0.54335709E-04      0.26530041E-04      0.11027147E-04      0.16778521E-04
      0.27000000E-01      0.56683749E-04      0.27673991E-04      0.11502628E-04      0.17507129E-04
      0.28000000E-01      0.59052759E-04      0.28827958E-04      0.11982274E-04      0.18242527E-04
      0.29000000E-01      0.61442954E-04      0.29992043E-04      0.12466124E-04      0.18984786E-04
      0.30000000E-01      0.63854552E-04      0.31166348E-04      0.12954223E-04      0.19733982E-04
      0.31000000E-01      0.66287774E-04      0.32350974E-04      0.13446612E-04      0.20490188E-04
      0.32000000E-01      0.68742842E-04      0.33546028E-04      0.13943335E-04      0.21253479E-04
      0.33000000E-01      0.71219983E-04      0.34751614E-04      0.14444436E-04      0.22023933E-04
      0.34000000E-01      0.73719425E-04      0.35967838E-04      0.14949959E-04      0.22801627E-04
      0.35000000E-01      0.76241399E-04      0.37194811E-04      0.15459949E-04      0.23586639E-04
      0.36000000E-01      0.78786141E-04      0.38432639E-04      0.15974453E-04      0.24379049E-04
      0.37000000E-01      0.81353888E-04      0.39681436E-04      0.16493514E-04      0.25178937E-04
      0.38000000E-01      0.83944879E-04      0.40941312E-04      0.17017182E-04      0.25986385E-04
      0.39000000E-01      0.86559358E-04      0.42212381E-04      0.17545501E-04      0.26801476E-04
      0.40000000E-01      0.89197571E-04      0.43494758E-04      0.18078521E-04      0.27624292E-04
      0.41000000E-01      0.91859769E-04      0.44788559E-04      0.18616290E-04      0.28454919E-04
      0.42000000E-01      0.94546202E-04      0.46093902E-04      0.19158856E-04      0.29293443E-04
      0.43000000E-01      0.97257128E-04      0.47410907E-04      0.19706270E-04      0.30139951E-04
      0.44000000E-01      0.99992805E-04      0.48739693E-04      0.20258580E-04      0.30994531E-04
      0.45000000E-01      0.10275350E-03      0.50080384E-04      0.20815839E-04      0.31857273E-04
      0.46000000E-01      0.10553946E-03      0.51433101E-04      0.21378097E-04      0.32728266E-04
      0.47000000E-01      0.10835098E-03      0.52797972E-04      0.21945407E-04      0.33607603E-04
      0.48000000E-01      0.11118832E-03      0.54175122E-04      0.22517820E-04      0.34495376E-04
      0.49000000E-01      0.11405175E-03      0.55564681E-04      0.23095391E-04      0.35391680E-04
      0.50000000E-01      0.11694156E-03      0.56966777E-04      0.23678174E-04      0.36296611E-04
      0.51000000E-01      0.11985803E-03      0.58381542E-04      0.24266223E-04      0.37210264E-04
      0.52000000E-01      0.12280144E-03      0.59809110E-04      0.24859593E-04      0.38132739E-04
      0.53000000E-01      0.12577209E-03      0.61249615E-04      0.25458341E-04      0.39064133E-04
      0.54000000E-01      0.12877027E-03      0.62703195E-04      0.26062524E-04      0.40004549E-04
      0.55000000E-01      0.13179627E-03      0.64169987E-04      0.26672198E-04      0.40954088E-04
      0.56000000E-01      0.13485041E-03      0.65650132E-04      0.27287423E-04      0.41912854E-04
      0.57000000E-01      0.13793298E-03      0.67143771E-04      0.27908256E-04      0.42880951E-04
      0.58000000E-01      0.14104429E-03      0.68651048E-04      0.28534759E-04      0.43858485E-04
      0.59000000E-01      0.14418466E-03      0.70172108E-04      0.29166991E-04      0.44845565E-04
      0.60000000E-01      0.14735441E-03      0.71707100E-04      0.29805013E-04      0.45842300E-04
      0.61000000E-01      0.15055386E-03      0.73256171E-04      0.30448888E-04      0.46848800E-04
      0.62000000E-01      0.15378333E-03      0.74819474E-04      0.31098679E-04      0.47865178E-04
      0.63000000E-01      0.15704316E-03      0.76397162E-04      0.31754448E-04      0.48891547E-04
      0.64000000E-01      0.16033367E-03      0.77989389E-04      0.32416261E-04      0.49928022E-04
      0.65000000E-01      0.16365522E-03      0.79596313E-04      0.33084183E-04      0.50974722E-04
      0.66000000E-01      0.16700814E-03      0.81218092E-04      0.33758281E-04      0.52031763E-04
      0.67000000E-01      0.17039278E-03      0.82854889E-04      0.34438620E-04      0.53099267E-04
      0.68000000E-01      0.17380949E-03      0.84506865E-04      0.35125269E-04      0.54177356E-04
      0.69000000E-01      0.17725864E-03      0.86174188E-04      0.35818296E-04      0.55266152E-04
      0.70000000E-01      0.18074058E-03      0.87857024E-04      0.36517773E-04      0.56365782E-04
      0.71000000E-01      0.18425568E-03      0.89555543E-04      0.37223768E-04      0.57476372E-04
      0.72000000E-01      0.18780432E-03      0.91269917E-04      0.37936353E-04      0.58598052E-04
      0.73000000E-01      0.19138687E-03      0.93000321E-04      0.38655602E-04      0.59730952E-04
      0.74000000E-01      0.19500372E-03      0.94746931E-04      0.39381586E-04      0.60875204E-04
      0.75000000E-01      0.19865525E-03      0.96509926E-04      0.40114382E-04      0.62030944E-04
      0.76000000E-01      0.20234186E-03      0.98289488E-04      0.40854063E-04      0.63198307E-04
      0.77000000E-01      0.20606394E-03      0.10008580E-03      0.41600708E-04      0.64377432E-04
      0.78000000E-01      0.20982190E-03      0.10189905E-03      0.42354391E-04      0.65568460E-04
      0.79000000E-01      0.21361615E-03      0.10372942E-03      0.43115194E-04      0.66771531E-04
      0.80000000E-01      0.21744709E-03      0.10557711E-03      0.43883193E-04      0.67986792E-04
      0.81000000E-01      0.22131517E-03      0.10744231E-03      0.44658472E-04      0.69214388E-04
      0.82000000E-01      0.22522079E-03      0.10932521E-03      0.45441110E-04      0.70454469E-04
      0.83000000E-01      0.22916440E-03      0.11122602E-03      0.46231191E-04      0.71707183E-04
      0.84000000E-01      0.23314643E-03      0.11314494E-03      0.47028798E-04      0.72972686E-04
      0.85000000E-01      0.23716732E-03      0.11508217E-03      0.47834017E-04      0.74251131E-04
      0.86000000E-01      0.24122753E-03      0.11703792E-03      0.48646934E-04      0.75542677E-04
      0.87000000E-01      0.24532751E-03      0.11901240E-03      0.49467635E-04      0.76847482E-04
      0.88000000E-01      0.24946774E-03      0.12100582E-03      0.50296210E-04      0.78165710E-04
      0.89000000E-01      0.25364866E-03      0.12301839E-03      0.51132748E-04      0.79497524E-04
      0.90000000E-01      0.25787078E-03      0.12505034E-03      0.51977341E-04      0.80843092E-04
      0.91000000E-01      0.26213456E-03      0.12710190E-03      0.52830080E-04      0.82202582E-04
      0.92000000E-01      0.26644050E-03      0.12917327E-03      0.53691058E-04      0.83576168E-04
      0.93000000E-01      0.27078909E-03      0.13126470E-03      0.54560371E-04      0.84964022E-04
      0.94000000E-01      0.27518084E-03      0.13337640E-03      0.55438115E-04      0.86366323E-04
      0.95000000E-01      0.27961626E-03      0.13550863E-03      0.56324388E-04      0.87783250E-04
      0.96000000E-01      0.28409588E-03      0.13766161E-03      0.57219287E-04      0.89214985E-04
      0.97000000E-01      0.28862021E-03      0.13983558E-03      0.58122913E-04      0.90661713E-04
      0.98000000E-01      0.29318978E-03      0.14203079E-03      0.59035367E-04      0.92123623E-04
      0.99000000E-01      0.29780515E-03      0.14424749E-03      0.59956754E-04      0.93600906E-04
      0.10000000E+00      0.30246687E-03      0.14648593E-03      0.60887176E-04      0.95093754E-04
      0.10100000E+00      0.30717547E-03      0.14874637E-03      0.61826741E-04      0.96602366E-04
      0.10200000E+00      0.31193155E-03      0.15102905E-03      0.62775555E-04      0.98126939E-04
      0.10300000E+00      0.31673565E-03      0.15333425E-03      0.63733727E-04      0.99667678E-04
      0.10400000E+00      0.32158838E-03      0.15566223E-03      0.64701368E-04      0.10122479E-03
      0.10500000E+00      0.32649032E-03      0.15801325E-03      0.65678589E-04      0.10279848E-03
      0.10600000E+00      0.33144207E-03      0.16038760E-03      0.66665506E-04      0.10438896E-03
      0.10700000E+00      0.33644423E-03      0.16278555E-03      0.67662232E-04      0.10599645E-03
      0.10800000E+00      0.34149743E-03      0.16520738E-03      0.68668885E-04      0.10762116E-03
      0.10900000E+00      0.34660229E-03      0.16765338E-03      0.69685583E-04      0.10926332E-03
      0.11000000E+00      0.35175944E-03      0.17012384E-03      0.70712447E-04      0.11092316E-03
      0.11100000E+00      0.35696954E-03      0.17261904E-03      0.71749598E-04      0.11260090E-03
      0.11200000E+00      0.36223323E-03      0.17513929E-03      0.72797162E-04      0.11429678E-03
      0.11300000E+00      0.36755118E-03      0.17768489E-03      0.73855262E-04      0.11601103E-03
      0.11400000E+00      0.37292407E-03      0.18025615E-03      0.74924028E-04      0.11774389E-03
      0.11500000E+00      0.37835258E-03      0.18285337E-03      0.76003587E-04      0.11949561E-03
      0.11600000E+00      0.38383740E-03      0.18547688E-03      0.77094072E-04      0.12126644E-03
      0.11700000E+00      0.38937924E-03      0.18812700E-03      0.78195616E-04      0.12305662E-03
      0.11800000E+00      0.39497881E-03      0.19080404E-03      0.79308353E-04      0.12486642E-03
      0.11900000E+00      0.40063685E-03      0.19350834E-03      0.80432421E-04      0.12669609E-03
      0.12000000E+00      0.40635409E-03      0.19624024E-03      0.81567959E-04      0.12854589E-03
      0.12100000E+00      0.41213128E-03      0.19900006E-03      0.82715108E-04      0.13041610E-03
      0.12200000E+00      0.41796918E-03      0.20178817E-03      0.83874012E-04      0.13230699E-03
      0.12300000E+00      0.42386856E-03      0.20460491E-03      0.85044817E-04      0.13421883E-03
      0.12400000E+00      0.42983021E-03      0.20745063E-03      0.86227669E-04      0.13615191E-03
      0.12500000E+00      0.43585493E-03      0.21032569E-03      0.87422718E-04      0.13810652E-03
      0.12600000E+00      0.44194352E-03      0.21323047E-03      0.88630118E-04      0.14008294E-03
      0.12700000E+00      0.44809681E-03      0.21616532E-03      0.89850022E-04      0.14208146E-03
      0.12800000E+00      0.45431563E-03      0.21913064E-03      0.91082586E-04      0.14410240E-03
      0.12900000E+00      0.46060082E-03      0.22212680E-03      0.92327972E-04      0.14614605E-03
      0.13000000E+00      0.46695326E-03      0.22515419E-03      0.93586339E-04      0.14821273E-03
      0.13100000E+00      0.47337381E-03      0.22821320E-03      0.94857852E-04      0.15030276E-03
      0.13200000E+00      0.47986336E-03      0.23130424E-03      0.96142677E-04      0.15241644E-03
      0.13300000E+00      0.48642281E-03      0.23442771E-03      0.97440984E-04      0.15455412E-03
      0.13400000E+00      0.49305309E-03      0.23758403E-03      0.98752945E-04      0.15671611E-03
      0.13500000E+00      0.49975512E-03      0.24077362E-03      0.10007873E-03      0.15890277E-03
      0.13600000E+00      0.50652985E-03      0.24399690E-03      0.10141853E-03      0.16111442E-03
      0.13700000E+00      0.51337823E-03      0.24725430E-03      0.10277250E-03      0.16335143E-03
      0.13800000E+00      0.52030126E-03      0.25054626E-03      0.10414085E-03      0.16561414E-03
      0.13900000E+00      0.52729991E-03      0.25387324E-03      0.10552375E-03      0.16790292E-03
      0.14000000E+00      0.53437520E-03      0.25723568E-03      0.10692139E-03      0.17021813E-03
      0.14100000E+00      0.54152815E-03      0.26063404E-03      0.10833396E-03      0.17256015E-03
      0.14200000E+00      0.54875981E-03      0.26406880E-03      0.10976166E-03      0.17492935E-03
      0.14300000E+00      0.55607123E-03      0.26754042E-03      0.11120468E-03      0.17732613E-03
      0.14400000E+00      0.56346349E-03      0.27104939E-03      0.11266323E-03      0.17975087E-03
      0.14500000E+00      0.57093768E-03      0.27459619E-03      0.11413751E-03      0.18220398E-03
      0.14600000E+00      0.57849492E-03      0.27818134E-03      0.11562772E-03      0.18468585E-03
      0.14700000E+00      0.58613633E-03      0.28180533E-03      0.11713409E-03      0.18719691E-03
      0.14800000E+00      0.59386306E-03      0.28546868E-03      0.11865681E-03      0.18973758E-03
      0.14900000E+00      0.60167629E-03      0.28917190E-03      0.12019610E-03      0.19230828E-03
      0.15000000E+00      0.60957719E-03      0.29291554E-03      0.12175220E-03      0.19490946E-03
      0.15100000E+00      0.61756698E-03      0.29670013E-03      0.12332532E-03      0.19754154E-03
      0.15200000E+00      0.62564689E-03      0.30052621E-03      0.12491568E-03      0.20020499E-03
      0.15300000E+00      0.63381815E-03      0.30439435E-03      0.12652353E-03      0.20290027E-03
      0.15400000E+00      0.64208204E-03      0.30830511E-03      0.12814910E-03      0.20562783E-03
      0.15500000E+00      0.65043986E-03      0.31225907E-03      0.12979262E-03      0.20838817E-03
      0.15600000E+00      0.65889290E-03      0.31625681E-03      0.13145434E-03      0.21118176E-03
      0.15700000E+00      0.66744252E-03      0.32029892E-03      0.13313451E-03      0.21400909E-03
      0.15800000E+00      0.67609006E-03      0.32438602E-03      0.13483337E-03      0.21687067E-03
      0.15900000E+00      0.68483691E-03      0.32851871E-03      0.13655119E-03      0.21976701E-03
      0.16000000E+00      0.69368447E-03      0.33269762E-03      0.13828822E-03      0.22269863E-03
      0.16100000E+00      0.70263417E-03      0.33692338E-03      0.14004472E-03      0.22566606E-03
      0.16200000E+00      0.71168746E-03      0.34119664E-03      0.14182097E-03      0.22866984E-03
      0.16300000E+00      0.72084583E-03      0.34551806E-03      0.14361724E-03      0.23171052E-03
      0.16400000E+00      0.73011077E-03      0.34988831E-03      0.14543381E-03      0.23478866E-03
      0.16500000E+00      0.73948383E-03      0.35430805E-03      0.14727095E-03      0.23790483E-03
      0.16600000E+00      0.74896655E-03      0.35877799E-03      0.14912895E-03      0.24105961E-03
      0.16700000E+00      0.75856052E-03      0.36329882E-03      0.15100811E-03      0.24425359E-03
      0.16800000E+00      0.76826736E-03      0.36787126E-03      0.15290873E-03      0.24748738E-03
      0.16900000E+00      0.77808871E-03      0.37249603E-03      0.15483109E-03      0.25076158E-03
      0.17000000E+00      0.78802624E-03      0.37717388E-03      0.15677552E-03      0.25407683E-03
      0.17100000E+00      0.79808164E-03      0.38190555E-03      0.15874233E-03      0.25743376E-03
      0.17200000E+00      0.80825666E-03      0.38669181E-03      0.16073182E-03      0.26083302E-03
      0.17300000E+00      0.81855305E-03      0.39153344E-03      0.16274433E-03      0.26427528E-03
      0.17400000E+00      0.82897260E-03      0.39643122E-03      0.16478019E-03      0.26776120E-03
      0.17500000E+00      0.83951715E-03      0.40138596E-03      0.16683972E-03      0.27129148E-03
      0.17600000E+00      0.85018856E-03      0.40639848E-03      0.16892327E-03      0.27486681E-03
      0.17700000E+00      0.86098871E-03      0.41146962E-03      0.17103118E-03      0.27848791E-03
      0.17800000E+00      0.87191954E-03      0.41660021E-03      0.17316381E-03      0.28215551E-03
      0.17900000E+00      0.88298300E-03      0.42179113E-03      0.17532152E-03      0.28587035E-03
      0.18000000E+00      0.89418111E-03      0.42704326E-03      0.17750467E-03      0.28963318E-03
      0.18100000E+00      0.90551588E-03      0.43235747E-03      0.17971363E-03      0.29344479E-03
      0.18200000E+00      0.91698941E-03      0.43773469E-03      0.18194877E-03      0.29730594E-03
      0.18300000E+00      0.92860380E-03      0.44317584E-03      0.18421050E-03      0.30121745E-03
      0.18400000E+00      0.94036120E-03      0.44868187E-03      0.18649919E-03      0.30518014E-03
      0.18500000E+00      0.95226380E-03      0.45425372E-03      0.18881525E-03      0.30919483E-03
      0.18600000E+00      0.96431385E-03      0.45989239E-03      0.19115908E-03      0.31326238E-03
      0.18700000E+00      0.97651361E-03      0.46559886E-03      0.19353109E-03      0.31738366E-03
      0.18800000E+00      0.98886540E-03      0.47137414E-03      0.19593171E-03      0.32155955E-03
      0.18900000E+00      0.10013716E-02      0.47721927E-03      0.19836136E-03      0.32579095E-03
      0.19000000E+00      0.10140346E-02      0.48313529E-03      0.20082049E-03      0.33007879E-03
      0.19100000E+00      0.10268568E-02      0.48912328E-03      0.20330953E-03      0.33442401E-03
      0.19200000E+00      0.10398408E-02      0.49518433E-03      0.20582894E-03      0.33882756E-03
      0.19300000E+00      0.10529891E-02      0.50131953E-03      0.20837917E-03      0.34329043E-03
      0.19400000E+00      0.10663043E-02      0.50753003E-03      0.21096071E-03      0.34781361E-03
      0.19500000E+00      0.10797891E-02      0.51381697E-03      0.21357402E-03      0.35239812E-03
      0.19600000E+00      0.10934461E-02      0.52018153E-03      0.21621959E-03      0.35704500E-03
